5 LTN 850 10
10.0     168
10.02    169
10.04    181
10.06    186
10.08    182
10.1     185
10.12    185
10.14    188
10.16    188
10.18    185
10.2     185
10.22    191
10.24    201
10.26    195
10.28    190
10.3     190
10.32    192
10.34    183
10.36    187
10.38    198
10.4     196
10.42    197
10.44    202
10.46    197
10.48    185
10.5     177
10.52    182
10.54    179
10.56    181
10.58    180
10.6     178
10.62    183
10.64    188
10.66    190
10.68    179
10.7     186
10.72    200
10.74    191
10.76    180
10.78    183
10.8     189
10.82    198
10.84    191
10.86    192
10.88    183
10.9     181
10.92    190
10.94    193
10.96    196
10.98    185
11.0     194
11.02    196
11.04    171
11.06    170
11.08    188
11.1     193
11.12    191
11.14    198
11.16    191
11.18    194
11.2     210
11.22    208
11.24    196
11.26    186
11.28    184
11.3     184
11.32    189
11.34    196
11.36    206
11.38    213
11.4     228
11.42    219
11.44    201
11.46    206
11.48    191
11.5     184
11.52    192
11.54    187
11.56    185
11.58    182
11.6     194
11.62    213
11.64    199
11.66    197
11.68    207
11.7     205
11.72    205
11.74    200
11.76    187
11.78    204
11.8     216
11.82    217
11.84    217
11.86    217
11.88    216
11.9     192
11.92    196
11.94    218
11.96    211
11.98    204
12.0     215
12.02    220
12.04    219
12.06    223
12.08    209
12.1     203
12.12    209
12.14    222
12.16    211
12.18    192
12.2     198
12.22    203
12.24    214
12.26    213
12.28    201
12.3     196
12.32    198
12.34    205
12.36    215
12.38    210
12.4     194
12.42    203
12.44    224
12.46    233
12.48    233
12.5     237
12.52    239
12.54    237
12.56    234
12.58    242
12.6     258
12.62    244
12.64    231
12.66    236
12.68    230
12.7     223
12.72    232
12.74    228
12.76    233
12.78    237
12.8     217
12.82    228
12.84    252
12.86    249
12.88    223
12.9     220
12.92    230
12.94    238
12.96    232
12.98    236
13.0     231
13.02    225
13.04    232
13.06    235
13.08    212
13.1     206
13.12    225
13.14    226
13.16    212
13.18    213
13.2     227
13.22    232
13.24    235
13.26    238
13.28    226
13.3     236
13.32    229
13.34    216
13.36    216
13.38    213
13.4     219
13.42    231
13.44    239
13.46    226
13.48    235
13.5     239
13.52    218
13.54    218
13.56    222
13.58    230
13.6     233
13.62    235
13.64    254
13.66    250
13.68    234
13.7     223
13.72    219
13.74    228
13.76    234
13.78    238
13.8     240
13.82    234
13.84    232
13.86    220
13.88    218
13.9     244
13.92    256
13.94    243
13.96    240
13.98    247
14.0     249
14.02    254
14.04    263
14.06    256
14.08    267
14.1     246
14.12    228
14.14    242
14.16    259
14.18    259
14.2     250
14.22    239
14.24    230
14.26    246
14.28    247
14.3     255
14.32    243
14.34    241
14.36    255
14.38    261
14.4     260
14.42    252
14.44    244
14.46    249
14.48    262
14.5     268
14.52    266
14.54    268
14.56    255
14.58    250
14.6     277
14.62    274
14.64    262
14.66    276
14.68    272
14.7     263
14.72    263
14.74    251
14.76    272
14.78    273
14.8     257
14.82    267
14.84    289
14.86    273
14.88    260
14.9     267
14.92    277
14.94    269
14.96    255
14.98    250
15.0     279
15.02    274
15.04    259
15.06    266
15.08    275
15.1     276
15.12    268
15.14    260
15.16    273
15.18    274
15.2     262
15.22    255
15.24    252
15.26    265
15.28    277
15.3     284
15.32    291
15.34    264
15.36    254
15.38    256
15.4     258
15.42    265
15.44    275
15.46    281
15.48    291
15.5     275
15.52    269
15.54    281
15.56    271
15.58    273
15.6     269
15.62    270
15.64    276
15.66    285
15.68    290
15.7     303
15.72    282
15.74    259
15.76    282
15.78    305
15.8     295
15.82    281
15.84    273
15.86    288
15.88    310
15.9     292
15.92    275
15.94    294
15.96    295
15.98    281
16.0     292
16.02    289
16.04    304
16.06    290
16.08    286
16.1     314
16.12    303
16.14    302
16.16    303
16.18    297
16.2     288
16.22    296
16.24    307
16.26    306
16.28    309
16.3     302
16.32    287
16.34    298
16.36    312
16.38    323
16.4     327
16.42    330
16.44    299
16.46    294
16.48    304
16.5     307
16.52    304
16.54    310
16.56    314
16.58    317
16.6     324
16.62    315
16.64    309
16.66    322
16.68    318
16.7     323
16.72    329
16.74    324
16.76    317
16.78    330
16.8     332
16.82    316
16.84    302
16.86    299
16.88    316
16.9     313
16.92    294
16.94    303
16.96    314
16.98    324
17.0     335
17.02    337
17.04    336
17.06    330
17.08    353
17.1     335
17.12    334
17.14    335
17.16    325
17.18    315
17.2     319
17.22    324
17.24    328
17.26    357
17.28    355
17.3     340
17.32    322
17.34    306
17.36    328
17.38    341
17.4     346
17.42    365
17.44    358
17.46    339
17.48    313
17.5     307
17.52    346
17.54    345
17.56    316
17.58    333
17.6     344
17.62    346
17.64    327
17.66    351
17.68    364
17.7     361
17.72    361
17.74    351
17.76    363
17.78    361
17.8     348
17.82    341
17.84    343
17.86    347
17.88    366
17.9     365
17.92    365
17.94    381
17.96    372
17.98    346
18.0     372
18.02    387
18.04    387
18.06    370
18.08    346
18.1     356
18.12    350
18.14    366
18.16    377
18.18    372
18.2     373
18.22    353
18.24    356
18.26    369
18.28    375
18.3     384
18.32    381
18.34    388
18.36    384
18.38    372
18.4     338
18.42    357
18.44    381
18.46    391
18.48    380
18.5     380
18.52    387
18.54    365
18.56    371
18.58    381
18.6     394
18.62    383
18.64    356
18.66    352
18.68    348
18.7     360
18.72    388
18.74    383
18.76    381
18.78    369
18.8     375
18.82    396
18.84    399
18.86    392
18.88    389
18.9     398
18.92    400
18.94    394
18.96    384
18.98    386
19.0     391
19.02    423
19.04    421
19.06    408
19.08    410
19.1     389
19.12    397
19.14    404
19.16    406
19.18    404
19.2     401
19.22    407
19.24    409
19.26    386
19.28    384
19.3     392
19.32    401
19.34    388
19.36    383
19.38    377
19.4     405
19.42    422
19.44    422
19.46    396
19.48    397
19.5     385
19.52    408
19.54    420
19.56    428
19.58    415
19.6     417
19.62    425
19.64    417
19.66    405
19.68    415
19.7     414
19.72    422
19.74    402
19.76    422
19.78    455
19.8     426
19.82    427
19.84    418
19.86    411
19.88    423
19.9     424
19.92    414
19.94    419
19.96    414
19.98    418
20.0     429
20.02    411
20.04    434
20.06    424
20.08    427
20.1     418
20.12    416
20.14    413
20.16    427
20.18    439
20.2     442
20.22    406
20.24    438
20.26    443
20.28    416
20.3     420
20.32    432
20.34    421
20.36    443
20.38    466
20.4     438
20.42    428
20.44    442
20.46    459
20.48    426
20.5     434
20.52    427
20.54    432
20.56    438
20.58    446
20.6     434
20.62    422
20.64    432
20.66    426
20.68    443
20.7     436
20.72    441
20.74    438
20.76    446
20.78    452
20.8     457
20.82    465
20.84    449
20.86    471
20.88    473
20.9     444
20.92    443
20.94    459
20.96    443
20.98    433
21.0     457
21.02    468
21.04    455
21.06    462
21.08    474
21.1     450
21.12    439
21.14    450
21.16    456
21.18    458
21.2     468
21.22    458
21.24    466
21.26    465
21.28    453
21.3     475
21.32    478
21.34    488
21.36    481
21.38    459
21.4     451
21.42    471
21.44    462
21.46    442
21.48    486
21.5     488
21.52    469
21.54    453
21.56    477
21.58    465
21.6     456
21.62    480
21.64    475
21.66    476
21.68    456
21.7     475
21.72    472
21.74    459
21.76    487
21.78    506
21.8     498
21.82    480
21.84    509
21.86    528
21.88    510
21.9     496
21.92    490
21.94    498
21.96    506
21.98    492
22.0     490
22.02    509
22.04    485
22.06    489
22.08    461
22.1     473
22.12    460
22.14    478
22.16    484
22.18    502
22.2     474
22.22    477
22.24    512
22.26    521
22.28    507
22.3     505
22.32    521
22.34    498
22.36    517
22.38    526
22.4     481
22.42    505
22.44    509
22.46    500
22.48    500
22.5     506
22.52    491
22.54    497
22.56    507
22.58    500
22.6     486
22.62    494
22.64    514
22.66    506
22.68    501
22.7     509
22.72    507
22.74    507
22.76    499
22.78    498
22.8     508
22.82    515
22.84    494
22.86    502
22.88    493
22.9     527
22.92    536
22.94    513
22.96    487
22.98    479
23.0     481
23.02    513
23.04    495
23.06    487
23.08    499
23.1     500
23.12    512
23.14    501
23.16    514
23.18    500
23.2     510
23.22    511
23.24    517
23.26    499
23.28    497
23.3     501
23.32    536
23.34    550
23.36    531
23.38    498
23.4     507
23.42    504
23.44    515
23.46    496
23.48    496
23.5     513
23.52    527
23.54    508
23.56    525
23.58    523
23.6     519
23.62    508
23.64    491
23.66    513
23.68    543
23.7     525
23.72    529
23.74    531
23.76    521
23.78    535
23.8     519
23.82    526
23.84    500
23.86    506
23.88    538
23.9     567
23.92    520
23.94    534
23.96    524
23.98    523
24.0     524
24.02    485
24.04    496
24.06    521
24.08    515
24.1     504
24.12    518
24.14    499
24.16    476
24.18    504
24.2     538
24.22    489
24.24    502
24.26    516
24.28    514
24.3     508
24.32    522
24.34    501
24.36    533
24.38    543
24.4     526
24.42    513
24.44    535
24.46    533
24.48    529
24.5     511
24.52    501
24.54    525
24.56    534
24.58    551
24.6     537
24.62    534
24.64    513
24.66    533
24.68    503
24.7     509
24.72    510
24.74    500
24.76    538
24.78    514
24.8     527
24.82    515
24.84    529
24.86    531
24.88    528
24.9     509
24.92    534
24.94    510
24.96    514
24.98    525
25.0     516
25.02    536
25.04    544
25.06    534
25.08    526
25.1     528
25.12    534
25.14    515
25.16    530
25.18    507
25.2     509
25.22    547
25.24    541
25.26    509
25.28    541
25.3     543
25.32    499
25.34    521
25.36    536
25.38    500
25.4     512
25.42    522
25.44    505
25.46    509
25.48    541
25.5     528
25.52    503
25.54    509
25.56    488
25.58    491
25.6     508
25.62    510
25.64    524
25.66    533
25.68    547
25.7     561
25.72    578
25.74    531
25.76    503
25.78    518
25.8     532
25.82    501
25.84    518
25.86    523
25.88    528
25.9     522
25.92    537
25.94    534
25.96    558
25.98    518
26.0     519
26.02    544
26.04    529
26.06    518
26.08    519
26.1     515
26.12    509
26.14    526
26.16    523
26.18    515
26.2     523
26.22    523
26.24    542
26.26    520
26.28    500
26.3     512
26.32    524
26.34    509
26.36    514
26.38    542
26.4     539
26.42    493
26.44    503
26.46    516
26.48    521
26.5     524
26.52    505
26.54    565
26.56    516
26.58    526
26.6     527
26.62    538
26.64    520
26.66    512
26.68    552
26.7     524
26.72    502
26.74    531
26.76    530
26.78    543
26.8     506
26.82    530
26.84    536
26.86    505
26.88    510
26.9     539
26.92    506
26.94    482
26.96    489
26.98    509
27.0     491
27.02    513
27.04    511
27.06    502
27.08    530
27.1     545
27.12    517
27.14    502
27.16    506
27.18    527
27.2     488
27.22    499
27.24    487
27.26    501
27.28    506
27.3     449
27.32    458
27.34    504
27.36    543
27.38    516
27.4     494
27.42    485
27.44    477
27.46    503
27.48    497
27.5     487
27.52    507
27.54    505
27.56    514
27.58    537
27.6     480
27.62    506
27.64    488
27.66    521
27.68    506
27.7     473
27.72    447
27.74    453
27.76    491
27.78    547
27.8     524
27.82    500
27.84    503
27.86    497
27.88    512
27.9     507
27.92    493
27.94    488
27.96    479
27.98    488
28.0     473
28.02    477
28.04    518
28.06    513
28.08    501
28.1     478
28.12    511
28.14    497
28.16    498
28.18    496
28.2     519
28.22    494
28.24    488
28.26    520
28.28    491
28.3     479
28.32    511
28.34    490
28.36    489
28.38    463
28.4     482
28.42    477
28.44    478
28.46    500
28.48    485
28.5     470
28.52    479
28.54    526
28.56    516
28.58    499
28.6     510
28.62    470
28.64    491
28.66    498
28.68    487
28.7     476
28.72    495
28.74    496
28.76    485
28.78    483
28.8     463
28.82    472
28.84    491
28.86    483
28.88    500
28.9     462
28.92    485
28.94    526
28.96    482
28.98    486
29.0     470
29.02    488
29.04    486
29.06    502
29.08    493
29.1     495
29.12    508
29.14    486
29.16    480
29.18    464
29.2     499
29.22    491
29.24    493
29.26    478
29.28    483
29.3     476
29.32    504
29.34    471
29.36    486
29.38    499
29.4     484
29.42    490
29.44    496
29.46    491
29.48    446
29.5     472
29.52    481
29.54    514
29.56    507
29.58    459
29.6     455
29.62    485
29.64    473
29.66    476
29.68    452
29.7     488
29.72    472
29.74    457
29.76    452
29.78    470
29.8     483
29.82    466
29.84    474
29.86    484
29.88    465
29.9     449
29.92    436
29.94    484
29.96    497
29.98    482
30.0     462
30.02    447
30.04    439
30.06    439
30.08    447
30.1     448
30.12    481
30.14    454
30.16    495
30.18    475
30.2     444
30.22    466
30.24    453
30.26    466
30.28    485
30.3     485
30.32    446
30.34    447
30.36    481
30.38    475
30.4     467
30.42    508
30.44    465
30.46    459
30.48    485
30.5     473
30.52    424
30.54    438
30.56    445
30.58    451
30.6     456
30.62    477
30.64    491
30.66    475
30.68    445
30.7     457
30.72    461
30.74    459
30.76    442
30.78    467
30.8     459
30.82    477
30.84    459
30.86    469
30.88    472
30.9     469
30.92    464
30.94    469
30.96    462
30.98    467
31.0     461
31.02    455
31.04    472
31.06    461
31.08    460
31.1     449
31.12    454
31.14    475
31.16    468
31.18    452
31.2     464
31.22    461
31.24    475
31.26    471
31.28    441
31.3     449
31.32    468
31.34    441
31.36    448
31.38    434
31.4     427
31.42    422
31.44    439
31.46    464
31.48    465
31.5     440
31.52    430
31.54    430
31.56    466
31.58    448
31.6     444
31.62    428
31.64    448
31.66    434
31.68    447
31.7     453
31.72    436
31.74    434
31.76    477
31.78    442
31.8     459
31.82    453
31.84    439
31.86    435
31.88    415
31.9     408
31.92    467
31.94    472
31.96    449
31.98    442
32.0     425
32.02    451
32.04    437
32.06    431
32.08    444
32.1     450
32.12    445
32.14    414
32.16    428
32.18    425
32.2     419
32.22    464
32.24    460
32.26    426
32.28    455
32.3     424
32.32    454
32.34    386
32.36    435
32.38    429
32.4     462
32.42    443
32.44    448
32.46    442
32.48    418
32.5     421
32.52    423
32.54    424
32.56    434
32.58    452
32.6     436
32.62    430
32.64    430
32.66    440
32.68    443
32.7     406
32.72    415
32.74    443
32.76    416
32.78    474
32.8     454
32.82    435
32.84    442
32.86    418
32.88    414
32.9     408
32.92    416
32.94    427
32.96    414
32.98    418
33.0     416
33.02    422
33.04    404
33.06    429
33.08    410
33.1     409
33.12    405
33.14    448
33.16    393
33.18    426
33.2     421
33.22    392
33.24    420
33.26    428
33.28    401
33.3     407
33.32    390
33.34    395
33.36    400
33.38    386
33.4     406
33.42    388
33.44    381
33.46    379
33.48    410
33.5     423
33.52    420
33.54    416
33.56    400
33.58    397
33.6     395
33.62    409
33.64    380
33.66    406
33.68    390
33.7     404
33.72    381
33.74    417
33.76    397
33.78    415
33.8     435
33.82    388
33.84    423
33.86    400
33.88    363
33.9     405
33.92    404
33.94    380
33.96    394
33.98    386
34.0     394
34.02    398
34.04    402
34.06    380
34.08    394
34.1     369
34.12    379
34.14    397
34.16    416
34.18    378
34.2     402
34.22    388
34.24    386
34.26    373
34.28    376
34.3     385
34.32    397
34.34    373
34.36    399
34.38    385
34.4     406
34.42    394
34.44    385
34.46    386
34.48    415
34.5     402
34.52    351
34.54    401
34.56    344
34.58    363
34.6     399
34.62    383
34.64    352
34.66    387
34.68    418
34.7     366
34.72    371
34.74    423
34.76    397
34.78    395
34.8     406
34.82    409
34.84    396
34.86    386
34.88    398
34.9     388
34.92    392
34.94    384
34.96    378
34.98    373
35.0     377
35.02    356
35.04    371
35.06    386
35.08    392
35.1     377
35.12    370
35.14    392
35.16    400
35.18    359
35.2     376
35.22    359
35.24    345
35.26    378
35.28    367
35.3     376
35.32    387
35.34    356
35.36    373
35.38    382
35.4     410
35.42    368
35.44    356
35.46    367
35.48    372
35.5     373
35.52    367
35.54    373
35.56    404
35.58    399
35.6     359
35.62    355
35.64    347
35.66    368
35.68    351
35.7     343
35.72    372
35.74    374
35.76    401
35.78    392
35.8     393
35.82    365
35.84    391
35.86    391
35.88    364
35.9     360
35.92    359
35.94    360
35.96    371
35.98    354
36.0     380
36.02    355
36.04    372
36.06    355
36.08    382
36.1     359
36.12    329
36.14    365
36.16    379
36.18    361
36.2     362
36.22    359
36.24    382
36.26    380
36.28    401
36.3     355
36.32    343
36.34    378
36.36    392
36.38    350
36.4     390
36.42    396
36.44    367
36.46    380
36.48    395
36.5     426
36.52    385
36.54    380
36.56    411
36.58    352
36.6     372
36.62    360
36.64    360
36.66    348
36.68    339
36.7     345
36.72    370
36.74    349
36.76    399
36.78    350
36.8     373
36.82    351
36.84    368
36.86    340
36.88    355
36.9     355
36.92    340
36.94    385
36.96    331
36.98    372
37.0     338
37.02    357
37.04    364
37.06    357
37.08    355
37.1     392
37.12    387
37.14    379
37.16    355
37.18    377
37.2     366
37.22    367
37.24    337
37.26    347
37.28    346
37.3     366
37.32    365
37.34    354
37.36    366
37.38    359
37.4     339
37.42    359
37.44    347
37.46    365
37.48    386
37.5     317
37.52    333
37.54    340
37.56    351
37.58    334
37.6     320
37.62    333
37.64    353
37.66    347
37.68    317
37.7     339
37.72    356
37.74    330
37.76    344
37.78    316
37.8     343
37.82    332
37.84    344
37.86    342
37.88    351
37.9     372
37.92    318
37.94    341
37.96    332
37.98    347
38.0     326
38.02    331
38.04    342
38.06    325
38.08    337
38.1     365
38.12    317
38.14    329
38.16    327
38.18    330
38.2     345
38.22    319
38.24    318
38.26    324
38.28    327
38.3     344
38.32    325
38.34    330
38.36    359
38.38    343
38.4     329
38.42    331
38.44    331
38.46    328
38.48    342
38.5     343
38.52    335
38.54    324
38.56    337
38.58    302
38.6     354
38.62    353
38.64    339
38.66    328
38.68    322
38.7     347
38.72    337
38.74    338
38.76    333
38.78    322
38.8     338
38.82    333
38.84    327
38.86    328
38.88    333
38.9     313
38.92    334
38.94    347
38.96    333
38.98    326
39.0     339
39.02    318
39.04    314
39.06    309
39.08    306
39.1     352
39.12    350
39.14    340
39.16    342
39.18    328
39.2     361
39.22    336
39.24    331
39.26    321
39.28    336
39.3     334
39.32    328
39.34    348
39.36    305
39.38    334
39.4     337
39.42    343
39.44    314
39.46    336
39.48    333
39.5     346
39.52    334
39.54    335
39.56    336
39.58    335
39.6     335
39.62    331
39.64    311
39.66    319
39.68    326
39.7     347
39.72    334
39.74    334
39.76    309
39.78    312
39.8     329
39.82    324
39.84    321
39.86    326
39.88    329
39.9     320
39.92    316
39.94    308
39.96    317
39.98    334
40.0     354
40.02    366
40.04    329
40.06    340
40.08    334
40.1     281
40.12    321
40.14    334
40.16    349
40.18    299
40.2     302
40.22    335
40.24    342
40.26    334
40.28    337
40.3     345
40.32    328
40.34    319
40.36    353
40.38    324
40.4     337
40.42    348
40.44    345
40.46    321
40.48    306
40.5     320
40.52    338
40.54    330
40.56    320
40.58    293
40.6     305
40.62    320
40.64    362
40.66    326
40.68    320
40.7     355
40.72    346
40.74    308
40.76    324
40.78    320
40.8     317
40.82    324
40.84    307
40.86    310
40.88    318
40.9     317
40.92    329
40.94    318
40.96    315
40.98    335
41.0     329
41.02    334
41.04    319
41.06    309
41.08    334
41.1     335
41.12    319
41.14    301
41.16    331
41.18    311
41.2     333
41.22    318
41.24    314
41.26    313
41.28    334
41.3     329
41.32    324
41.34    317
41.36    334
41.38    327
41.4     324
41.42    317
41.44    309
41.46    319
41.48    343
41.5     335
41.52    358
41.54    340
41.56    339
41.58    311
41.6     332
41.62    375
41.64    344
41.66    335
41.68    353
41.7     338
41.72    341
41.74    342
41.76    326
41.78    334
41.8     313
41.82    315
41.84    327
41.86    333
41.88    330
41.9     362
41.92    324
41.94    337
41.96    347
41.98    316
42.0     302
42.02    318
42.04    342
42.06    349
42.08    345
42.1     351
42.12    330
42.14    328
42.16    321
42.18    334
42.2     345
42.22    348
42.24    335
42.26    353
42.28    332
42.3     336
42.32    357
42.34    347
42.36    344
42.38    348
42.4     377
42.42    328
42.44    341
42.46    327
42.48    327
42.5     314
42.52    323
42.54    341
42.56    322
42.58    325
42.6     344
42.62    321
42.64    327
42.66    322
42.68    308
42.7     337
42.72    336
42.74    335
42.76    304
42.78    328
42.8     327
42.82    322
42.84    323
42.86    300
42.88    323
42.9     327
42.92    321
42.94    366
42.96    335
42.98    325
43.0     339
43.02    339
43.04    315
43.06    317
43.08    356
43.1     349
43.12    336
43.14    351
43.16    347
43.18    334
43.2     330
43.22    327
43.24    341
43.26    342
43.28    355
43.3     345
43.32    348
43.34    361
43.36    368
43.38    361
43.4     333
43.42    333
43.44    341
43.46    349
43.48    336
43.5     361
43.52    326
43.54    304
43.56    337
43.58    344
43.6     337
43.62    351
43.64    368
43.66    374
43.68    361
43.7     373
43.72    371
43.74    385
43.76    404
43.78    375
43.8     372
43.82    414
43.84    380
43.86    415
43.88    421
43.9     403
43.92    436
43.94    442
43.96    439
43.98    432
44.0     467
44.02    475
44.04    506
44.06    506
44.08    489
44.1     524
44.12    511
44.14    513
44.16    523
44.18    494
44.2     504
44.22    496
44.24    486
44.26    468
44.28    423
44.3     458
44.32    434
44.34    442
44.36    398
44.38    402
44.4     388
44.42    390
44.44    399
44.46    380
44.48    406
44.5     395
44.52    352
44.54    353
44.56    373
44.58    364
44.6     351
44.62    340
44.64    332
44.66    352
44.68    315
44.7     319
44.72    348
44.74    340
44.76    357
44.78    345
44.8     344
44.82    334
44.84    317
44.86    333
44.88    344
44.9     312
44.92    298
44.94    361
44.96    337
44.98    323
45.0     332
45.02    307
45.04    308
45.06    318
45.08    323
45.1     341
45.12    328
45.14    331
45.16    327
45.18    327
45.2     349
45.22    362
45.24    335
45.26    324
45.28    343
45.3     314
45.32    328
45.34    339
45.36    326
45.38    311
45.4     316
45.42    313
45.44    320
45.46    319
45.48    327
45.5     301
45.52    326
45.54    310
45.56    325
45.58    316
45.6     326
45.62    320
45.64    317
45.66    306
45.68    307
45.7     314
45.72    297
45.74    293
45.76    317
45.78    313
45.8     319
45.82    325
45.84    309
45.86    320
45.88    318
45.9     327
45.92    328
45.94    340
45.96    310
45.98    310
46.0     319
46.02    329
46.04    308
46.06    290
46.08    276
46.1     299
46.12    285
46.14    294
46.16    309
46.18    311
46.2     334
46.22    311
46.24    317
46.26    326
46.28    300
46.3     326
46.32    335
46.34    329
46.36    317
46.38    333
46.4     324
46.42    326
46.44    316
46.46    295
46.48    327
46.5     323
46.52    304
46.54    319
46.56    326
46.58    313
46.6     306
46.62    318
46.64    299
46.66    286
46.68    277
46.7     275
46.72    305
46.74    329
46.76    319
46.78    296
46.8     325
46.82    320
46.84    320
46.86    309
46.88    298
46.9     296
46.92    301
46.94    303
46.96    304
46.98    285
47.0     288
47.02    307
47.04    311
47.06    339
47.08    310
47.1     281
47.12    293
47.14    299
47.16    297
47.18    299
47.2     315
47.22    308
47.24    292
47.26    316
47.28    303
47.3     304
47.32    308
47.34    301
47.36    288
47.38    308
47.4     297
47.42    302
47.44    311
47.46    328
47.48    301
47.5     304
47.52    295
47.54    287
47.56    329
47.58    318
47.6     313
47.62    299
47.64    304
47.66    308
47.68    313
47.7     318
47.72    301
47.74    315
47.76    298
47.78    299
47.8     298
47.82    300
47.84    306
47.86    293
47.88    306
47.9     296
47.92    294
47.94    303
47.96    305
47.98    303
48.0     287
48.02    319
48.04    309
48.06    304
48.08    309
48.1     308
48.12    305
48.14    280
48.16    268
48.18    284
48.2     297
48.22    323
48.24    309
48.26    311
48.28    297
48.3     299
48.32    334
48.34    312
48.36    306
48.38    289
48.4     304
48.42    289
48.44    302
48.46    316
48.48    296
48.5     294
48.52    330
48.54    324
48.56    299
48.58    298
48.6     277
48.62    298
48.64    312
48.66    294
48.68    300
48.7     315
48.72    328
48.74    310
48.76    334
48.78    304
48.8     299
48.82    292
48.84    300
48.86    326
48.88    306
48.9     314
48.92    309
48.94    293
48.96    291
48.98    304
49.0     309
49.02    307
49.04    298
49.06    307
49.08    304
49.1     317
49.12    310
49.14    308
49.16    284
49.18    292
49.2     285
49.22    303
49.24    296
49.26    308
49.28    290
49.3     308
49.32    306
49.34    278
49.36    299
49.38    309
49.4     293
49.42    291
49.44    299
49.46    290
49.48    287
49.5     297
49.52    298
49.54    294
49.56    291
49.58    283
49.6     292
49.62    294
49.64    298
49.66    311
49.68    310
49.7     316
49.72    329
49.74    313
49.76    322
49.78    299
49.8     300
49.82    284
49.84    290
49.86    308
49.88    307
49.9     293
49.92    309
49.94    317
49.96    301
49.98    290
50.0     275
50.02    304
50.04    310
50.06    302
50.08    314
50.1     307
50.12    282
50.14    283
50.16    300
50.18    291
50.2     310
50.22    309
50.24    318
50.26    299
50.28    285
50.3     295
50.32    292
50.34    293
50.36    300
50.38    287
50.4     286
50.42    288
50.44    287
50.46    308
50.48    291
50.5     311
50.52    334
50.54    324
50.56    306
50.58    306
50.6     308
50.62    326
50.64    316
50.66    307
50.68    292
50.7     283
50.72    314
50.74    322
50.76    300
50.78    304
50.8     312
50.82    323
50.84    335
50.86    325
50.88    304
50.9     296
50.92    311
50.94    322
50.96    320
50.98    308
51.0     310
51.02    323
51.04    317
51.06    337
51.08    317
51.1     328
51.12    348
51.14    338
51.16    316
51.18    333
51.2     346
51.22    346
51.24    342
51.26    325
51.28    338
51.3     337
51.32    342
51.34    338
51.36    350
51.38    340
51.4     339
51.42    358
51.44    355
51.46    355
51.48    330
51.5     353
51.52    341
51.54    351
51.56    346
51.58    343
51.6     326
51.62    336
51.64    338
51.66    305
51.68    313
51.7     320
51.72    345
51.74    346
51.76    326
51.78    322
51.8     317
51.82    301
51.84    312
51.86    318
51.88    314
51.9     318
51.92    311
51.94    293
51.96    288
51.98    286
52.0     306
52.02    310
52.04    309
52.06    309
52.08    321
52.1     306
52.12    314
52.14    307
52.16    333
52.18    308
52.2     279
52.22    308
52.24    303
52.26    280
52.28    292
52.3     299
52.32    304
52.34    290
52.36    301
52.38    309
52.4     289
52.42    296
52.44    293
52.46    280
52.48    294
52.5     312
52.52    286
52.54    275
52.56    294
52.58    295
52.6     282
52.62    287
52.64    315
52.66    302
52.68    296
52.7     295
52.72    292
52.74    295
52.76    299
52.78    287
52.8     292
52.82    291
52.84    293
52.86    283
52.88    286
52.9     301
52.92    306
52.94    286
52.96    284
52.98    298
53.0     292
53.02    312
53.04    300
53.06    282
53.08    308
53.1     315
53.12    299
53.14    303
53.16    297
53.18    292
53.2     295
53.22    288
53.24    276
53.26    282
53.28    278
53.3     272
53.32    292
53.34    280
53.36    276
53.38    287
53.4     293
53.42    284
53.44    259
53.46    262
53.48    283
53.5     290
53.52    284
53.54    299
53.56    283
53.58    289
53.6     288
53.62    277
53.64    288
53.66    280
53.68    298
53.7     289
53.72    303
53.74    298
53.76    292
53.78    298
53.8     284
53.82    275
53.84    281
53.86    296
53.88    291
53.9     290
53.92    290
53.94    299
53.96    290
53.98    297
54.0     305
54.02    322
54.04    276
54.06    278
54.08    283
54.1     274
54.12    274
54.14    297
54.16    286
54.18    286
54.2     294
54.22    273
54.24    284
54.26    277
54.28    283
54.3     272
54.32    278
54.34    286
54.36    296
54.38    299
54.4     296
54.42    300
54.44    300
54.46    282
54.48    283
54.5     282
54.52    276
54.54    281
54.56    286
54.58    280
54.6     284
54.62    286
54.64    300
54.66    300
54.68    288
54.7     298
54.72    293
54.74    289
54.76    269
54.78    289
54.8     309
54.82    320
54.84    306
54.86    289
54.88    309
54.9     299
54.92    280
54.94    276
54.96    281
54.98    276
55.0     277
55.02    289
55.04    299
55.06    304
55.08    292
55.1     297
55.12    303
55.14    288
55.16    308
55.18    294
55.2     263
55.22    271
55.24    296
55.26    286
55.28    304
55.3     296
55.32    283
55.34    291
55.36    283
55.38    296
55.4     291
55.42    289
55.44    295
55.46    288
55.48    302
55.5     298
55.52    274
55.54    272
55.56    285
55.58    277
55.6     294
55.62    286
55.64    270
55.66    271
55.68    279
55.7     276
55.72    272
55.74    294
55.76    283
55.78    289
55.8     308
55.82    286
55.84    288
55.86    305
55.88    288
55.9     288
55.92    289
55.94    283
55.96    264
55.98    271
56.0     296
56.02    294
56.04    292
56.06    278
56.08    287
56.1     292
56.12    292
56.14    297
56.16    292
56.18    296
56.2     289
56.22    287
56.24    275
56.26    283
56.28    292
56.3     291
56.32    305
56.34    290
56.36    293
56.38    287
56.4     282
56.42    282
56.44    272
56.46    275
56.48    292
56.5     304
56.52    300
56.54    305
56.56    301
56.58    299
56.6     303
56.62    303
56.64    284
56.66    275
56.68    301
56.7     297
56.72    287
56.74    284
56.76    288
56.78    286
56.8     295
56.82    313
56.84    305
56.86    308
56.88    306
56.9     289
56.92    286
56.94    299
56.96    302
56.98    304
57.0     302
57.02    298
57.04    301
57.06    285
57.08    276
57.1     275
57.12    298
57.14    297
57.16    272
57.18    280
57.2     291
57.22    304
57.24    294
57.26    279
57.28    288
57.3     288
57.32    292
57.34    290
57.36    293
57.38    278
57.4     280
57.42    291
57.44    297
57.46    296
57.48    279
57.5     276
57.52    287
57.54    285
57.56    296
57.58    297
57.6     288
57.62    283
57.64    281
57.66    283
57.68    286
57.7     286
57.72    291
57.74    282
57.76    286
57.78    289
57.8     278
57.82    271
57.84    270
57.86    298
57.88    305
57.9     297
57.92    282
57.94    297
57.96    291
57.98    304
58.0     306
58.02    287
58.04    294
58.06    272
58.08    283
58.1     303
58.12    279
58.14    291
58.16    297
58.18    292
58.2     279
58.22    273
58.24    287
58.26    295
58.28    317
58.3     317
58.32    306
58.34    297
58.36    272
58.38    307
58.4     325
58.42    306
58.44    287
58.46    278
58.48    286
58.5     292
58.52    285
58.54    283
58.56    290
58.58    276
58.6     283
58.62    293
58.64    270
58.66    277
58.68    290
58.7     292
58.72    283
58.74    282
58.76    280
58.78    296
58.8     292
58.82    288
58.84    301
58.86    298
58.88    283
58.9     290
58.92    294
58.94    299
58.96    295
58.98    278
59.0     268
59.02    276
59.04    283
59.06    294
59.08    299
59.1     300
59.12    303
59.14    293
59.16    277
59.18    275
59.2     279
59.22    272
59.24    277
59.26    282
59.28    275
59.3     302
59.32    301
59.34    282
59.36    264
59.38    293
59.4     299
59.42    291
59.44    308
59.46    287
59.48    285
59.5     306
59.52    322
59.54    302
59.56    275
59.58    289
59.6     293
59.62    296
59.64    277
59.66    284
59.68    293
59.7     284
59.72    276
59.74    275
59.76    289
59.78    292
59.8     308
59.82    305
59.84    285
59.86    285
59.88    270
59.9     272
59.92    288
59.94    288
59.96    287
59.98    304
60.0     291
60.02    287
60.04    279
60.06    285
60.08    304
60.1     300
60.12    280
60.14    302
60.16    287
60.18    281
60.2     290
60.22    269
60.24    248
60.26    292
60.28    298
60.3     283
60.32    290
60.34    290
60.36    297
60.38    289
60.4     299
60.42    302
60.44    305
60.46    284
60.48    275
60.5     278
60.52    283
60.54    301
60.56    298
60.58    290
60.6     282
60.62    289
60.64    294
60.66    293
60.68    284
60.7     295
60.72    293
60.74    269
60.76    266
60.78    271
60.8     278
60.82    293
60.84    302
60.86    299
60.88    278
60.9     275
60.92    277
60.94    278
60.96    275
60.98    294
61.0     277
61.02    268
61.04    297
61.06    286
61.08    270
61.1     260
61.12    271
61.14    305
61.16    304
61.18    288
61.2     284
61.22    284
61.24    269
61.26    272
61.28    294
61.3     305
61.32    302
61.34    283
61.36    282
61.38    301
61.4     301
61.42    289
61.44    288
61.46    305
61.48    296
61.5     286
61.52    282
61.54    296
61.56    296
61.58    284
61.6     282
61.62    288
61.64    299
61.66    304
61.68    306
61.7     302
61.72    280
61.74    265
61.76    271
61.78    280
61.8     295
61.82    312
61.84    310
61.86    300
61.88    292
61.9     268
61.92    258
61.94    279
61.96    293
61.98    296
62.0     288
62.02    285
62.04    279
62.06    283
62.08    285
62.1     267
62.12    273
62.14    274
62.16    270
62.18    283
62.2     285
62.22    294
62.24    291
62.26    293
62.28    287
62.3     281
62.32    285
62.34    299
62.36    298
62.38    311
62.4     296
62.42    290
62.44    286
62.46    277
62.48    279
62.5     290
62.52    289
62.54    277
62.56    290
62.58    294
62.6     283
62.62    273
62.64    275
62.66    288
62.68    300
62.7     293
62.72    295
62.74    310
62.76    287
62.78    278
62.8     290
62.82    289
62.84    282
62.86    299
62.88    299
62.9     296
62.92    288
62.94    304
62.96    284
62.98    269
63.0     268
63.02    271
63.04    290
63.06    289
63.08    293
63.1     284
63.12    273
63.14    252
63.16    265
63.18    294
63.2     300
63.22    294
63.24    277
63.26    289
63.28    287
63.3     287
63.32    289
63.34    268
63.36    282
63.38    300
63.4     287
63.42    280
63.44    295
63.46    309
63.48    295
63.5     278
63.52    279
63.54    281
63.56    272
63.58    280
63.6     264
63.62    258
63.64    257
63.66    267
63.68    281
63.7     290
63.72    281
63.74    283
63.76    279
63.78    267
63.8     262
63.82    286
63.84    288
63.86    283
63.88    281
63.9     277
63.92    266
63.94    270
63.96    281
63.98    274
64.0     280
64.02    281
64.04    289
64.06    283
64.08    274
64.1     284
64.12    286
64.14    298
64.16    276
64.18    268
64.2     261
64.22    298
64.24    291
64.26    273
64.28    276
64.3     279
64.32    287
64.34    274
64.36    257
64.38    280
64.4     275
64.42    269
64.44    278
64.46    291
64.48    268
64.5     274
64.52    283
64.54    291
64.56    288
64.58    286
64.6     288
64.62    284
64.64    286
64.66    280
64.68    283
64.7     298
64.72    282
64.74    290
64.76    281
64.78    297
64.8     273
64.82    264
64.84    286
64.86    280
64.88    281
64.9     268
64.92    292
64.94    292
64.96    265
64.98    263
65.0     283
65.02    300
65.04    289
65.06    292
65.08    280
65.1     278
65.12    286
65.14    281
65.16    286
65.18    283
65.2     277
65.22    278
65.24    284
65.26    292
65.28    285
65.3     274
65.32    273
65.34    275
65.36    287
65.38    274
65.4     265
65.42    273
65.44    269
65.46    274
65.48    271
65.5     284
65.52    290
65.54    283
65.56    281
65.58    284
65.6     276
65.62    283
65.64    288
65.66    276
65.68    267
65.7     284
65.72    271
65.74    274
65.76    265
65.78    270
65.8     269
65.82    262
65.84    275
65.86    271
65.88    287
65.9     277
65.92    265
65.94    288
65.96    283
65.98    269
66.0     262
66.02    270
66.04    271
66.06    278
66.08    283
66.1     307
66.12    300
66.14    300
66.16    287
66.18    304
66.2     307
66.22    274
66.24    276
66.26    296
66.28    282
66.3     270
66.32    269
66.34    251
66.36    256
66.38    279
66.4     283
66.42    280
66.44    265
66.46    279
66.48    287
66.5     262
66.52    278
66.54    277
66.56    300
66.58    294
66.6     279
66.62    289
66.64    278
66.66    269
66.68    277
66.7     260
66.72    280
66.74    292
66.76    297
66.78    304
66.8     280
66.82    263
66.84    248
66.86    258
66.88    277
66.9     282
66.92    288
66.94    291
66.96    268
66.98    277
67.0     275
67.02    293
67.04    298
67.06    278
67.08    295
67.1     281
67.12    289
67.14    268
67.16    274
67.18    274
67.2     266
67.22    265
67.24    260
67.26    258
67.28    282
67.3     276
67.32    267
67.34    281
67.36    276
67.38    250
67.4     265
67.42    257
67.44    247
67.46    241
67.48    252
67.5     261
67.52    274
67.54    251
67.56    262
67.58    280
67.6     294
67.62    285
67.64    271
67.66    267
67.68    277
67.7     282
67.72    256
67.74    281
67.76    269
67.78    289
67.8     280
67.82    278
67.84    268
67.86    268
67.88    283
67.9     286
67.92    273
67.94    254
67.96    278
67.98    286
68.0     260
68.02    261
68.04    261
68.06    261
68.08    283
68.1     276
68.12    252
68.14    251
68.16    254
68.18    273
68.2     270
68.22    264
68.24    256
68.26    261
68.28    267
68.3     252
68.32    246
68.34    239
68.36    264
68.38    276
68.4     276
68.42    276
68.44    273
68.46    288
68.48    290
68.5     269
68.52    252
68.54    259
68.56    265
68.58    267
68.6     275
68.62    292
68.64    281
68.66    282
68.68    270
68.7     250
68.72    243
68.74    259
68.76    275
68.78    271
68.8     250
68.82    251
68.84    255
68.86    277
68.88    285
68.9     272
68.92    262
68.94    273
68.96    283
68.98    288
69.0     275
69.02    265
69.04    264
69.06    265
69.08    271
69.1     276
69.12    269
69.14    264
69.16    268
69.18    259
69.2     262
69.22    256
69.24    265
69.26    277
69.28    275
69.3     248
69.32    250
69.34    256
69.36    252
69.38    248
69.4     267
69.42    259
69.44    271
69.46    270
69.48    261
69.5     268
69.52    251
69.54    248
69.56    257
69.58    252
69.6     250
69.62    263
69.64    254
69.66    273
69.68    282
69.7     256
69.72    246
69.74    240
69.76    266
69.78    265
69.8     292
69.82    280
69.84    294
69.86    314
69.88    282
69.9     247
69.92    277
69.94    269
69.96    260
69.98    271
70.0     277
70.02    261
70.04    278
70.06    265
70.08    269
70.1     258
70.12    262
70.14    250
70.16    247
70.18    236
70.2     245
70.22    263
70.24    264
70.26    253
70.28    261
70.3     269
70.32    253
70.34    250
70.36    276
70.38    278
70.4     276
70.42    265
70.44    248
70.46    264
70.48    258
70.5     261
70.52    247
70.54    266
70.56    258
70.58    269
70.6     269
70.62    258
70.64    248
70.66    261
70.68    266
70.7     273
70.72    253
70.74    277
70.76    275
70.78    257
70.8     227
70.82    253
70.84    272
70.86    253
70.88    251
70.9     241
70.92    260
70.94    253
70.96    243
70.98    262
71.0     252
71.02    248
71.04    242
71.06    253
71.08    266
71.1     256
71.12    256
71.14    255
71.16    249
71.18    264
71.2     271
71.22    265
71.24    265
71.26    266
71.28    254
71.3     271
71.32    278
71.34    279
71.36    274
71.38    266
71.4     256
71.42    255
71.44    246
71.46    264
71.48    287
71.5     295
71.52    269
71.54    251
71.56    247
71.58    282
71.6     253
71.62    261
71.64    265
71.66    273
71.68    273
71.7     258
71.72    274
71.74    274
71.76    260
71.78    269
71.8     285
71.82    271
71.84    248
71.86    260
71.88    263
71.9     274
71.92    268
71.94    264
71.96    257
71.98    249
72.0     225
72.02    262
72.04    290
72.06    270
72.08    259
72.1     245
72.12    255
72.14    264
72.16    256
72.18    263
72.2     264
72.22    272
72.24    291
72.26    267
72.28    250
72.3     260
72.32    250
72.34    263
72.36    254
72.38    276
72.4     250
72.42    246
72.44    279
72.46    266
72.48    241
72.5     254
72.52    258
72.54    249
72.56    259
72.58    252
72.6     247
72.62    257
72.64    260
72.66    274
72.68    265
72.7     272
72.72    270
72.74    266
72.76    274
72.78    282
72.8     265
72.82    277
72.84    263
72.86    248
72.88    267
72.9     264
72.92    252
72.94    246
72.96    261
72.98    262
73.0     263
73.02    274
73.04    256
73.06    261
73.08    246
73.1     261
73.12    252
73.14    256
73.16    276
73.18    263
73.2     253
73.22    252
73.24    246
73.26    259
73.28    253
73.3     272
73.32    260
73.34    232
73.36    257
73.38    262
73.4     246
73.42    273
73.44    288
73.46    277
73.48    265
73.5     267
73.52    270
73.54    268
73.56    274
73.58    251
73.6     265
73.62    254
73.64    259
73.66    253
73.68    262
73.7     249
73.72    265
73.74    248
73.76    244
73.78    250
73.8     273
73.82    268
73.84    271
73.86    276
73.88    267
73.9     278
73.92    247
73.94    271
73.96    256
73.98    249
74.0     254
74.02    272
74.04    265
74.06    252
74.08    254
74.1     255
74.12    253
74.14    254
74.16    250
74.18    281
74.2     272
74.22    273
74.24    283
74.26    272
74.28    281
74.3     255
74.32    257
74.34    261
74.36    289
74.38    281
74.4     263
74.42    264
74.44    250
74.46    257
74.48    252
74.5     273
74.52    255
74.54    252
74.56    245
74.58    268
74.6     263
74.62    249
74.64    241
74.66    238
74.68    238
74.7     231
74.72    252
74.74    277
74.76    250
74.78    250
74.8     257
74.82    265
74.84    261
74.86    267
74.88    254
74.9     287
74.92    263
74.94    262
74.96    262
74.98    277
75.0     300
75.02    269
75.04    259
75.06    268
75.08    242
75.1     262
75.12    284
75.14    280
75.16    271
75.18    267
75.2     258
75.22    265
75.24    257
75.26    268
75.28    278
75.3     261
75.32    240
75.34    237
75.36    234
75.38    260
75.4     275
75.42    278
75.44    267
75.46    259
75.48    283
75.5     298
75.52    273
75.54    256
75.56    280
75.58    268
75.6     288
75.62    270
75.64    273
75.66    295
75.68    298
75.7     292
75.72    292
75.74    285
75.76    274
75.78    307
75.8     276
75.82    292
75.84    282
75.86    274
75.88    291
75.9     281
75.92    290
75.94    289
75.96    275
75.98    277
76.0     270
76.02    253
76.04    252
76.06    251
76.08    273
76.1     269
76.12    269
76.14    262
76.16    250
76.18    258
76.2     271
76.22    275
76.24    283
76.26    246
76.28    275
76.3     276
76.32    276
76.34    264
76.36    279
76.38    270
76.4     267
76.42    274
76.44    268
76.46    279
76.48    280
76.5     281
76.52    270
76.54    257
76.56    255
76.58    257
76.6     272
76.62    274
76.64    253
76.66    220
76.68    229
76.7     231
76.72    235
76.74    250
76.76    254
76.78    255
76.8     251
76.82    253
76.84    247
76.86    281
76.88    266
76.9     252
76.92    270
76.94    267
76.96    249
76.98    235
77.0     234
77.02    255
77.04    250
77.06    246
77.08    251
77.1     254
77.12    242
77.14    241
77.16    251
77.18    249
77.2     257
77.22    246
77.24    242
77.26    285
77.28    276
77.3     270
77.32    272
77.34    275
77.36    245
77.38    256
77.4     240
77.42    244
77.44    248
77.46    254
77.48    248
77.5     258
77.52    247
77.54    263
77.56    247
77.58    254
77.6     240
77.62    237
77.64    253
77.66    241
77.68    252
77.7     251
77.72    255
77.74    254
77.76    247
77.78    235
77.8     275
77.82    280
77.84    273
77.86    248
77.88    244
77.9     251
77.92    236
77.94    233
77.96    235
77.98    239
78.0     254
78.02    247
78.04    252
78.06    254
78.08    274
78.1     265
78.12    232
78.14    222
78.16    243
78.18    263
78.2     265
78.22    261
78.24    267
78.26    245
78.28    246
78.3     254
78.32    265
78.34    251
78.36    244
78.38    235
78.4     233
78.42    263
78.44    270
78.46    253
78.48    234
78.5     247
78.52    237
78.54    251
78.56    264
78.58    253
78.6     270
78.62    239
78.64    248
78.66    249
78.68    247
78.7     246
78.72    257
78.74    221
78.76    219
78.78    236
78.8     238
78.82    248
78.84    259
78.86    253
78.88    249
78.9     211
78.92    210
78.94    234
78.96    231
78.98    242
79.0     262
79.02    267
79.04    247
79.06    265
79.08    239
79.1     231
79.12    242
79.14    239
79.16    242
79.18    237
79.2     251
79.22    260
79.24    234
79.26    260
79.28    236
79.3     253
79.32    251
79.34    240
79.36    248
79.38    243
79.4     252
79.42    256
79.44    235
79.46    245
79.48    261
79.5     254
79.52    244
79.54    258
79.56    240
79.58    242
79.6     230
79.62    224
79.64    226
79.66    249
79.68    236
79.7     232
79.72    224
79.74    253
79.76    267
79.78    265
79.8     262
79.82    267
79.84    243
79.86    236
79.88    257
79.9     264
79.92    256
79.94    268
79.96    242
79.98    246
80.0     249
