5.0      81
5.02     82
5.04     90
5.06     98
5.08     92
5.1      94
5.12     94
5.14     89
5.16     93
5.18     96
5.2      86
5.22     80
5.24     84
5.26     87
5.28     86
5.3      97
5.32     85
5.34     83
5.36     91
5.38     95
5.4      101
5.42     97
5.44     98
5.46     85
5.48     81
5.5      90
5.52     89
5.54     94
5.56     95
5.58     94
5.6      93
5.62     88
5.64     93
5.66     91
5.68     91
5.7      94
5.72     95
5.74     104
5.76     101
5.78     97
5.8      94
5.82     91
5.84     97
5.86     95
5.88     101
5.9      110
5.92     102
5.94     101
5.96     108
5.98     106
6.0      104
6.02     92
6.04     87
6.06     90
6.08     91
6.1      89
6.12     90
6.14     92
6.16     89
6.18     95
6.2      98
6.22     102
6.24     98
6.26     103
6.28     116
6.3      109
6.32     97
6.34     100
6.36     110
6.38     105
6.4      101
6.42     96
6.44     84
6.46     90
6.48     104
6.5      104
6.52     102
6.54     108
6.56     109
6.58     110
6.6      113
6.62     114
6.64     109
6.66     97
6.68     94
6.7      98
6.72     98
6.74     96
6.76     98
6.78     108
6.8      112
6.82     111
6.84     109
6.86     114
6.88     115
6.9      115
6.92     106
6.94     106
6.96     116
6.98     114
7.0      105
7.02     107
7.04     109
7.06     108
7.08     115
7.1      110
7.12     96
7.14     97
7.16     104
7.18     121
7.2      121
7.22     114
7.24     112
7.26     98
7.28     103
7.3      117
7.32     107
7.34     103
7.36     106
7.38     108
7.4      113
7.42     118
7.44     119
7.46     122
7.48     125
7.5      125
7.52     115
7.54     109
7.56     116
7.58     122
7.6      128
7.62     125
7.64     116
7.66     118
7.68     117
7.7      114
7.72     112
7.74     116
7.76     119
7.78     118
7.8      123
7.82     126
7.84     121
7.86     124
7.88     126
7.9      129
7.92     134
7.94     127
7.96     125
7.98     135
8.0      134
8.02     124
8.04     115
8.06     114
8.08     120
8.1      123
8.12     121
8.14     118
8.16     121
8.18     133
8.2      137
8.22     132
8.24     137
8.26     133
8.28     125
8.3      123
8.32     113
8.34     118
8.36     125
8.38     117
8.4      114
8.42     119
8.44     125
8.46     129
8.48     130
8.5      136
8.52     130
8.54     121
8.56     124
8.58     124
8.6      126
8.62     119
8.64     117
8.66     126
8.68     133
8.7      124
8.72     111
8.74     125
8.76     140
8.78     132
8.8      130
8.82     127
8.84     122
8.86     126
8.88     136
8.9      136
8.92     124
8.94     131
8.96     144
8.98     136
9.0      130
9.02     140
9.04     144
9.06     142
9.08     145
9.1      147
9.12     149
9.14     143
9.16     141
9.18     144
9.2      152
9.22     158
9.24     146
9.26     133
9.28     125
9.3      133
9.32     137
9.34     131
9.36     135
9.38     140
9.4      152
9.42     148
9.44     134
9.46     138
9.48     133
9.5      124
9.52     143
9.54     144
9.56     127
9.58     131
9.6      134
9.62     134
9.64     144
9.66     140
9.68     131
9.7      135
9.72     143
9.74     148
9.76     138
9.78     138
9.8      138
9.82     136
9.84     145
9.86     151
9.88     146
9.9      144
9.92     147
9.94     139
9.96     145
9.98     156
10.0     163
10.02    152
10.04    131
10.06    136
10.08    142
10.1     135
10.12    143
10.14    151
10.16    151
10.18    160
10.2     164
10.22    162
10.24    155
10.26    149
10.28    145
10.3     152
10.32    151
10.34    140
10.36    146
10.38    153
10.4     154
10.42    158
10.44    152
10.46    150
10.48    153
10.5     155
10.52    147
10.54    148
10.56    151
10.58    145
10.6     147
10.62    151
10.64    150
10.66    143
10.68    145
10.7     154
10.72    159
10.74    157
10.76    155
10.78    167
10.8     163
10.82    156
10.84    169
10.86    158
10.88    149
10.9     163
10.92    159
10.94    151
10.96    149
10.98    154
11.0     165
11.02    165
11.04    161
11.06    155
11.08    158
11.1     156
11.12    151
11.14    155
11.16    160
11.18    164
11.2     169
11.22    159
11.24    159
11.26    175
11.28    171
11.3     167
11.32    159
11.34    157
11.36    171
11.38    161
11.4     145
11.42    159
11.44    164
11.46    164
11.48    173
11.5     167
11.52    171
11.54    169
11.56    173
11.58    184
11.6     164
11.62    165
11.64    164
11.66    156
11.68    162
11.7     167
11.72    157
11.74    159
11.76    169
11.78    174
11.8     182
11.82    177
11.84    165
11.86    167
11.88    167
11.9     169
11.92    177
11.94    181
11.96    170
11.98    178
12.0     185
12.02    184
12.04    180
12.06    172
12.08    177
12.1     188
12.12    182
12.14    180
12.16    189
12.18    187
12.2     176
12.22    172
12.24    178
12.26    183
12.28    185
12.3     165
12.32    159
12.34    178
12.36    194
12.38    190
12.4     180
12.42    175
12.44    176
12.46    180
12.48    181
12.5     176
12.52    182
12.54    181
12.56    184
12.58    186
12.6     169
12.62    170
12.64    178
12.66    190
12.68    198
12.7     188
12.72    186
12.74    186
12.76    190
12.78    200
12.8     199
12.82    196
12.84    187
12.86    178
12.88    183
12.9     201
12.92    187
12.94    189
12.96    203
12.98    201
13.0     196
13.02    193
13.04    193
13.06    196
13.08    189
13.1     191
13.12    188
13.14    176
13.16    184
13.18    188
13.2     188
13.22    197
13.24    199
13.26    196
13.28    185
13.3     205
13.32    212
13.34    207
13.36    210
13.38    210
13.4     213
13.42    219
13.44    209
13.46    204
13.48    213
13.5     218
13.52    204
13.54    204
13.56    211
13.58    193
13.6     203
13.62    206
13.64    200
13.66    199
13.68    191
13.7     186
13.72    212
13.74    216
13.76    207
13.78    223
13.8     215
13.82    208
13.84    204
13.86    200
13.88    207
13.9     226
13.92    231
13.94    217
13.96    216
13.98    222
14.0     224
14.02    235
14.04    222
14.06    214
14.08    229
14.1     226
14.12    215
14.14    210
14.16    205
14.18    223
14.2     223
14.22    224
14.24    239
14.26    228
14.28    229
14.3     238
14.32    236
14.34    222
14.36    214
14.38    224
14.4     240
14.42    235
14.44    231
14.46    235
14.48    237
14.5     222
14.52    215
14.54    215
14.56    220
14.58    249
14.6     248
14.62    241
14.64    240
14.66    233
14.68    237
14.7     244
14.72    236
14.74    235
14.76    239
14.78    247
14.8     248
14.82    248
14.84    246
14.86    243
14.88    231
14.9     250
14.92    249
14.94    240
14.96    227
14.98    241
15.0     251
15.02    257
15.04    259
15.06    242
15.08    253
15.1     267
15.12    283
15.14    270
15.16    240
15.18    251
15.2     259
15.22    249
15.24    254
15.26    269
15.28    268
15.3     268
15.32    263
15.34    256
15.36    257
15.38    258
15.4     259
15.42    254
15.44    256
15.46    269
15.48    267
15.5     270
15.52    269
15.54    250
15.56    257
15.58    274
15.6     274
15.62    279
15.64    277
15.66    270
15.68    271
15.7     264
15.72    268
15.74    277
15.76    290
15.78    287
15.8     274
15.82    273
15.84    284
15.86    276
15.88    284
15.9     286
15.92    277
15.94    283
15.96    289
15.98    299
16.0     293
16.02    270
16.04    285
16.06    297
16.08    287
16.1     283
16.12    285
16.14    275
16.16    297
16.18    296
16.2     273
16.22    271
16.24    281
16.26    276
16.28    274
16.3     290
16.32    294
16.34    303
16.36    288
16.38    289
16.4     283
16.42    283
16.44    330
16.46    329
16.48    312
16.5     304
16.52    303
16.54    299
16.56    304
16.58    314
16.6     300
16.62    312
16.64    328
16.66    306
16.68    316
16.7     290
16.72    304
16.74    310
16.76    321
16.78    306
16.8     301
16.82    320
16.84    325
16.86    315
16.88    324
16.9     319
16.92    299
16.94    311
16.96    334
16.98    336
17.0     338
17.02    334
17.04    340
17.06    344
17.08    327
17.1     336
17.12    305
17.14    300
17.16    317
17.18    320
17.2     311
17.22    346
17.24    340
17.26    334
17.28    327
17.3     325
17.32    330
17.34    341
17.36    339
17.38    344
17.4     330
17.42    325
17.44    347
17.46    344
17.48    356
17.5     334
17.52    309
17.54    328
17.56    362
17.58    384
17.6     365
17.62    353
17.64    356
17.66    344
17.68    349
17.7     349
17.72    358
17.74    364
17.76    359
17.78    361
17.8     341
17.82    328
17.84    331
17.86    355
17.88    337
17.9     332
17.92    351
17.94    369
17.96    379
17.98    363
18.0     369
18.02    353
18.04    358
18.06    374
18.08    369
18.1     376
18.12    403
18.14    389
18.16    369
18.18    364
18.2     363
18.22    364
18.24    373
18.26    392
18.28    412
18.3     401
18.32    366
18.34    379
18.36    378
18.38    367
18.4     373
18.42    381
18.44    376
18.46    378
18.48    409
18.5     419
18.52    407
18.54    423
18.56    405
18.58    383
18.6     390
18.62    355
18.64    382
18.66    405
18.68    391
18.7     394
18.72    393
18.74    415
18.76    407
18.78    413
18.8     415
18.82    404
18.84    401
18.86    410
18.88    413
18.9     405
18.92    383
18.94    400
18.96    402
18.98    397
19.0     419
19.02    448
19.04    431
19.06    417
19.08    410
19.1     401
19.12    420
19.14    458
19.16    430
19.18    412
19.2     426
19.22    435
19.24    434
19.26    434
19.28    446
19.3     439
19.32    454
19.34    447
19.36    445
19.38    454
19.4     453
19.42    438
19.44    427
19.46    420
19.48    408
19.5     428
19.52    425
19.54    426
19.56    436
19.58    465
19.6     451
19.62    441
19.64    479
19.66    467
19.68    468
19.7     461
19.72    456
19.74    460
19.76    454
19.78    450
19.8     453
19.82    485
19.84    498
19.86    475
19.88    462
19.9     439
19.92    444
19.94    464
19.96    480
19.98    487
20.0     479
20.02    464
20.04    484
20.06    466
20.08    452
20.1     458
20.12    472
20.14    516
20.16    503
20.18    480
20.2     465
20.22    485
20.24    476
20.26    450
20.28    495
20.3     498
20.32    492
20.34    480
20.36    479
20.38    514
20.4     498
20.42    484
20.44    487
20.46    484
20.48    513
20.5     504
20.52    506
20.54    481
20.56    477
20.58    496
20.6     506
20.62    498
20.64    502
20.66    505
20.68    499
20.7     514
20.72    512
20.74    499
20.76    498
20.78    518
20.8     514
20.82    524
20.84    518
20.86    530
20.88    525
20.9     534
20.92    532
20.94    546
20.96    530
20.98    517
21.0     501
21.02    511
21.04    554
21.06    566
21.08    551
21.1     512
21.12    528
21.14    559
21.16    558
21.18    548
21.2     556
21.22    565
21.24    562
21.26    560
21.28    569
21.3     547
21.32    516
21.34    531
21.36    559
21.38    564
21.4     532
21.42    554
21.44    549
21.46    551
21.48    568
21.5     570
21.52    541
21.54    540
21.56    550
21.58    573
21.6     566
21.62    579
21.64    568
21.66    616
21.68    576
21.7     561
21.72    553
21.74    538
21.76    556
21.78    573
21.8     587
21.82    603
21.84    582
21.86    579
21.88    570
21.9     570
21.92    568
21.94    565
21.96    558
21.98    575
22.0     603
22.02    607
22.04    608
22.06    591
22.08    570
22.1     586
22.12    577
22.14    583
22.16    594
22.18    598
22.2     594
22.22    609
22.24    604
22.26    591
22.28    593
22.3     602
22.32    606
22.34    579
22.36    596
22.38    578
22.4     590
22.42    608
22.44    597
22.46    616
22.48    590
22.5     614
22.52    597
22.54    579
22.56    573
22.58    586
22.6     597
22.62    591
22.64    597
22.66    625
22.68    622
22.7     639
22.72    623
22.74    645
22.76    648
22.78    645
22.8     644
22.82    634
22.84    629
22.86    631
22.88    630
22.9     611
22.92    625
22.94    625
22.96    625
22.98    635
23.0     623
23.02    623
23.04    618
23.06    587
23.08    615
23.1     620
23.12    605
23.14    639
23.16    647
23.18    646
23.2     639
23.22    627
23.24    642
23.26    642
23.28    676
23.3     657
23.32    616
23.34    645
23.36    618
23.38    634
23.4     607
23.42    604
23.44    608
23.46    610
23.48    617
23.5     646
23.52    637
23.54    618
23.56    626
23.58    610
23.6     608
23.62    637
23.64    631
23.66    621
23.68    600
23.7     623
23.72    633
23.74    624
23.76    653
23.78    639
23.8     626
23.82    625
23.84    648
23.86    638
23.88    637
23.9     622
23.92    662
23.94    603
23.96    613
23.98    642
24.0     652
24.02    627
24.04    646
24.06    646
24.08    614
24.1     607
24.12    623
24.14    643
24.16    656
24.18    632
24.2     642
24.22    631
24.24    618
24.26    633
24.28    638
24.3     613
24.32    592
24.34    623
24.36    665
24.38    664
24.4     639
24.42    624
24.44    602
24.46    643
24.48    642
24.5     643
24.52    627
24.54    621
24.56    628
24.58    614
24.6     626
24.62    642
24.64    611
24.66    617
24.68    619
24.7     641
24.72    588
24.74    617
24.76    656
24.78    618
24.8     583
24.82    595
24.84    590
24.86    616
24.88    613
24.9     610
24.92    630
24.94    598
24.96    608
24.98    645
25.0     617
25.02    606
25.04    617
25.06    647
25.08    632
25.1     595
25.12    564
25.14    573
25.16    591
25.18    623
25.2     641
25.22    613
25.24    540
25.26    591
25.28    603
25.3     595
25.32    586
25.34    598
25.36    613
25.38    571
25.4     595
25.42    583
25.44    583
25.46    614
25.48    615
25.5     626
25.52    596
25.54    577
25.56    576
25.58    605
25.6     590
25.62    622
25.64    626
25.66    592
25.68    599
25.7     596
25.72    580
25.74    587
25.76    592
25.78    592
25.8     584
25.82    606
25.84    604
25.86    557
25.88    576
25.9     592
25.92    588
25.94    582
25.96    588
25.98    594
26.0     560
26.02    584
26.04    581
26.06    551
26.08    581
26.1     579
26.12    585
26.14    553
26.16    577
26.18    569
26.2     556
26.22    562
26.24    562
26.26    550
26.28    519
26.3     548
26.32    527
26.34    546
26.36    551
26.38    585
26.4     572
26.42    540
26.44    531
26.46    567
26.48    569
26.5     553
26.52    556
26.54    518
26.56    522
26.58    550
26.6     579
26.62    608
26.64    567
26.66    577
26.68    534
26.7     555
26.72    561
26.74    548
26.76    520
26.78    540
26.8     536
26.82    527
26.84    522
26.86    540
26.88    521
26.9     509
26.92    533
26.94    515
26.96    514
26.98    545
27.0     546
27.02    545
27.04    552
27.06    541
27.08    539
27.1     534
27.12    508
27.14    496
27.16    511
27.18    514
27.2     499
27.22    495
27.24    504
27.26    537
27.28    493
27.3     484
27.32    485
27.34    500
27.36    503
27.38    528
27.4     509
27.42    471
27.44    488
27.46    494
27.48    514
27.5     543
27.52    527
27.54    509
27.56    501
27.58    475
27.6     504
27.62    471
27.64    457
27.66    470
27.68    499
27.7     499
27.72    487
27.74    517
27.76    482
27.78    493
27.8     514
27.82    519
27.84    472
27.86    471
27.88    469
27.9     455
27.92    472
27.94    494
27.96    508
27.98    509
28.0     473
28.02    485
28.04    474
28.06    472
28.08    472
28.1     500
28.12    483
28.14    468
28.16    461
28.18    488
28.2     487
28.22    443
28.24    456
28.26    463
28.28    452
28.3     480
28.32    481
28.34    472
28.36    462
28.38    471
28.4     469
28.42    447
28.44    481
28.46    462
28.48    464
28.5     471
28.52    483
28.54    468
28.56    468
28.58    487
28.6     487
28.62    469
28.64    469
28.66    445
28.68    458
28.7     438
28.72    467
28.74    477
28.76    450
28.78    471
28.8     446
28.82    440
28.84    467
28.86    439
28.88    457
28.9     474
28.92    469
28.94    477
28.96    464
28.98    469
29.0     478
29.02    445
29.04    450
29.06    459
29.08    462
29.1     459
29.12    449
29.14    456
29.16    466
29.18    463
29.2     473
29.22    435
29.24    447
29.26    471
29.28    453
29.3     425
29.32    465
29.34    466
29.36    450
29.38    429
29.4     442
29.42    428
29.44    417
29.46    446
29.48    455
29.5     438
29.52    464
29.54    442
29.56    467
29.58    435
29.6     433
29.62    431
29.64    426
29.66    455
29.68    416
29.7     392
29.72    424
29.74    431
29.76    423
29.78    415
29.8     420
29.82    400
29.84    403
29.86    403
29.88    412
29.9     409
29.92    413
29.94    412
29.96    413
29.98    390
30.0     413
30.02    395
30.04    394
30.06    409
30.08    385
30.1     393
30.12    391
30.14    378
30.16    416
30.18    426
30.2     380
30.22    390
30.24    383
30.26    391
30.28    421
30.3     401
30.32    391
30.34    350
30.36    371
30.38    418
30.4     422
30.42    418
30.44    379
30.46    387
30.48    416
30.5     412
30.52    413
30.54    404
30.56    394
30.58    384
30.6     380
30.62    380
30.64    373
30.66    385
30.68    391
30.7     415
30.72    390
30.74    387
30.76    385
30.78    361
30.8     388
30.82    382
30.84    375
30.86    374
30.88    393
30.9     359
30.92    376
30.94    408
30.96    385
30.98    375
31.0     391
31.02    380
31.04    390
31.06    376
31.08    372
31.1     375
31.12    382
31.14    344
31.16    353
31.18    366
31.2     374
31.22    361
31.24    362
31.26    344
31.28    345
31.3     363
31.32    366
31.34    373
31.36    339
31.38    340
31.4     348
31.42    369
31.44    354
31.46    356
31.48    359
31.5     372
31.52    360
31.54    380
31.56    350
31.58    357
31.6     360
31.62    374
31.64    351
31.66    359
31.68    349
31.7     382
31.72    339
31.74    358
31.76    363
31.78    354
31.8     339
31.82    351
31.84    356
31.86    370
31.88    360
31.9     365
31.92    337
31.94    342
31.96    338
31.98    340
32.0     338
32.02    317
32.04    328
32.06    362
32.08    335
32.1     326
32.12    332
32.14    350
32.16    331
32.18    297
32.2     304
32.22    333
32.24    359
32.26    350
32.28    326
32.3     352
32.32    319
32.34    348
32.36    322
32.38    325
32.4     339
32.42    354
32.44    342
32.46    321
32.48    346
32.5     350
32.52    355
32.54    323
32.56    338
32.58    322
32.6     348
32.62    338
32.64    334
32.66    338
32.68    341
32.7     334
32.72    326
32.74    308
32.76    299
32.78    320
32.8     336
32.82    320
32.84    314
32.86    319
32.88    329
32.9     333
32.92    313
32.94    323
32.96    302
32.98    305
33.0     303
33.02    328
33.04    313
33.06    308
33.08    337
33.1     309
33.12    302
33.14    297
33.16    295
33.18    310
33.2     301
33.22    321
33.24    327
33.26    325
33.28    332
33.3     317
33.32    332
33.34    344
33.36    313
33.38    296
33.4     319
33.42    308
33.44    335
33.46    338
33.48    294
33.5     288
33.52    318
33.54    302
33.56    306
33.58    283
33.6     291
33.62    296
33.64    286
33.66    317
33.68    313
33.7     306
33.72    318
33.74    347
33.76    316
33.78    260
33.8     273
33.82    294
33.84    317
33.86    282
33.88    283
33.9     295
33.92    282
33.94    299
33.96    325
33.98    321
34.0     296
34.02    309
34.04    309
34.06    302
34.08    303
34.1     325
34.12    302
34.14    294
34.16    310
34.18    307
34.2     295
34.22    286
34.24    291
34.26    302
34.28    303
34.3     275
34.32    282
34.34    292
34.36    308
34.38    296
34.4     292
34.42    293
34.44    267
34.46    278
34.48    264
34.5     280
34.52    312
34.54    302
34.56    281
34.58    283
34.6     275
34.62    285
34.64    291
34.66    288
34.68    283
34.7     285
34.72    277
34.74    283
34.76    302
34.78    290
34.8     272
34.82    280
34.84    249
34.86    278
34.88    260
34.9     264
34.92    285
34.94    286
34.96    290
34.98    270
35.0     266
35.02    273
35.04    242
35.06    255
35.08    294
35.1     259
35.12    245
35.14    259
35.16    271
35.18    284
35.2     244
35.22    253
35.24    272
35.26    282
35.28    269
35.3     276
35.32    258
35.34    255
35.36    262
35.38    286
35.4     273
35.42    267
35.44    256
35.46    267
35.48    282
35.5     279
35.52    277
35.54    260
35.56    279
35.58    261
35.6     249
35.62    247
35.64    279
35.66    275
35.68    256
35.7     261
35.72    237
35.74    257
35.76    253
35.78    249
35.8     249
35.82    254
35.84    250
35.86    264
35.88    261
35.9     283
35.92    281
35.94    273
35.96    252
35.98    253
36.0     280
36.02    240
36.04    279
36.06    242
36.08    274
36.1     286
36.12    259
36.14    258
36.16    252
36.18    273
36.2     245
36.22    251
36.24    264
36.26    258
36.28    287
36.3     269
36.32    233
36.34    259
36.36    261
36.38    270
36.4     232
36.42    255
36.44    229
36.46    254
36.48    241
36.5     248
36.52    243
36.54    249
36.56    231
36.58    259
36.6     251
36.62    249
36.64    251
36.66    251
36.68    256
36.7     247
36.72    248
36.74    228
36.76    235
36.78    252
36.8     235
36.82    243
36.84    250
36.86    245
36.88    254
36.9     251
36.92    250
36.94    220
36.96    242
36.98    235
37.0     233
37.02    245
37.04    222
37.06    228
37.08    251
37.1     249
37.12    248
37.14    234
37.16    222
37.18    216
37.2     213
37.22    222
37.24    218
37.26    243
37.28    227
37.3     221
37.32    242
37.34    233
37.36    250
37.38    235
37.4     232
37.42    227
37.44    242
37.46    247
37.48    250
37.5     249
37.52    233
37.54    237
37.56    208
37.58    230
37.6     229
37.62    219
37.64    229
37.66    232
37.68    217
37.7     227
37.72    237
37.74    239
37.76    229
37.78    241
37.8     212
37.82    237
37.84    224
37.86    235
37.88    226
37.9     251
37.92    238
37.94    240
37.96    238
37.98    234
38.0     251
38.02    237
38.04    250
38.06    225
38.08    215
38.1     243
38.12    219
38.14    217
38.16    232
38.18    243
38.2     236
38.22    243
38.24    233
38.26    215
38.28    231
38.3     250
38.32    260
38.34    230
38.36    228
38.38    221
38.4     262
38.42    244
38.44    239
38.46    232
38.48    252
38.5     235
38.52    206
38.54    198
38.56    225
38.58    224
38.6     236
38.62    220
38.64    219
38.66    208
38.68    230
38.7     213
38.72    220
38.74    236
38.76    213
38.78    238
38.8     252
38.82    211
38.84    243
38.86    225
38.88    226
38.9     234
38.92    237
38.94    207
38.96    204
38.98    212
39.0     216
39.02    222
39.04    236
39.06    248
39.08    232
39.1     250
39.12    248
39.14    254
39.16    229
39.18    227
39.2     208
39.22    199
39.24    212
39.26    207
39.28    232
39.3     217
39.32    225
39.34    232
39.36    214
39.38    232
39.4     226
39.42    237
39.44    227
39.46    226
39.48    211
39.5     224
39.52    218
39.54    215
39.56    217
39.58    201
39.6     222
39.62    210
39.64    229
39.66    233
39.68    228
39.7     233
39.72    215
39.74    213
39.76    197
39.78    211
39.8     244
39.82    213
39.84    200
39.86    225
39.88    245
39.9     207
39.92    232
39.94    211
39.96    231
39.98    184
40.0     227
40.02    226
40.04    245
40.06    234
40.08    192
40.1     190
40.12    230
40.14    217
40.16    220
40.18    232
40.2     216
40.22    217
40.24    230
40.26    222
40.28    222
40.3     237
40.32    231
40.34    228
40.36    236
40.38    237
40.4     204
40.42    223
40.44    218
40.46    245
40.48    215
40.5     221
40.52    215
40.54    223
40.56    216
40.58    228
40.6     227
40.62    220
40.64    204
40.66    252
40.68    239
40.7     231
40.72    255
40.74    226
40.76    216
40.78    227
40.8     236
40.82    222
40.84    221
40.86    214
40.88    222
40.9     233
40.92    232
40.94    218
40.96    221
40.98    218
41.0     217
41.02    228
41.04    222
41.06    201
41.08    206
41.1     233
41.12    246
41.14    262
41.16    220
41.18    215
41.2     221
41.22    232
41.24    230
41.26    229
41.28    238
41.3     242
41.32    227
41.34    225
41.36    221
41.38    213
41.4     221
41.42    226
41.44    229
41.46    223
41.48    214
41.5     230
41.52    215
41.54    206
41.56    216
41.58    241
41.6     237
41.62    219
41.64    206
41.66    235
41.68    210
41.7     237
41.72    223
41.74    219
41.76    262
41.78    236
41.8     216
41.82    229
41.84    237
41.86    235
41.88    247
41.9     227
41.92    243
41.94    239
41.96    232
41.98    258
42.0     236
42.02    217
42.04    245
42.06    244
42.08    243
42.1     243
42.12    232
42.14    210
42.16    231
42.18    243
42.2     219
42.22    233
42.24    224
42.26    240
42.28    236
42.3     246
42.32    226
42.34    229
42.36    233
42.38    230
42.4     220
42.42    224
42.44    251
42.46    259
42.48    225
42.5     226
42.52    232
42.54    250
42.56    239
42.58    242
42.6     215
42.62    232
42.64    221
42.66    231
42.68    212
42.7     228
42.72    229
42.74    247
42.76    255
42.78    238
42.8     213
42.82    225
42.84    225
42.86    237
42.88    242
42.9     232
42.92    238
42.94    223
42.96    232
42.98    237
43.0     252
43.02    242
43.04    233
43.06    260
43.08    251
43.1     247
43.12    239
43.14    232
43.16    235
43.18    255
43.2     244
43.22    238
43.24    228
43.26    252
43.28    247
43.3     229
43.32    216
43.34    247
43.36    247
43.38    225
43.4     226
43.42    214
43.44    237
43.46    228
43.48    253
43.5     268
43.52    248
43.54    224
43.56    245
43.58    254
43.6     243
43.62    247
43.64    252
43.66    238
43.68    213
43.7     221
43.72    218
43.74    232
43.76    233
43.78    235
43.8     240
43.82    223
43.84    247
43.86    229
43.88    234
43.9     242
43.92    219
43.94    242
43.96    229
43.98    219
44.0     238
44.02    235
44.04    244
44.06    231
44.08    237
44.1     248
44.12    231
44.14    241
44.16    213
44.18    236
44.2     237
44.22    259
44.24    257
44.26    217
44.28    242
44.3     226
44.32    234
44.34    234
44.36    237
44.38    235
44.4     240
44.42    226
44.44    221
44.46    234
44.48    246
44.5     239
44.52    254
44.54    224
44.56    195
44.58    232
44.6     259
44.62    215
44.64    225
44.66    229
44.68    217
44.7     214
44.72    223
44.74    210
44.76    227
44.78    229
44.8     247
44.82    228
44.84    227
44.86    217
44.88    246
44.9     235
44.92    237
44.94    223
44.96    209
44.98    216
45.0     220
45.02    234
45.04    233
45.06    210
45.08    212
45.1     247
45.12    233
45.14    249
45.16    220
45.18    234
45.2     238
45.22    234
45.24    211
45.26    227
45.28    224
45.3     238
45.32    238
45.34    230
45.36    236
45.38    224
45.4     225
45.42    224
45.44    210
45.46    220
45.48    230
45.5     240
45.52    246
45.54    230
45.56    213
45.58    219
45.6     223
45.62    240
45.64    237
45.66    203
45.68    215
45.7     202
45.72    218
45.74    202
45.76    200
45.78    232
45.8     214
45.82    216
45.84    228
45.86    215
45.88    216
45.9     232
45.92    226
45.94    218
45.96    236
45.98    233
46.0     228
46.02    206
46.04    199
46.06    206
46.08    211
46.1     204
46.12    211
46.14    225
46.16    205
46.18    205
46.2     207
46.22    201
46.24    216
46.26    211
46.28    195
46.3     204
46.32    229
46.34    212
46.36    218
46.38    229
46.4     215
46.42    201
46.44    209
46.46    222
46.48    226
46.5     233
46.52    226
46.54    220
46.56    240
46.58    197
46.6     201
46.62    216
46.64    235
46.66    229
46.68    221
46.7     231
46.72    225
46.74    219
46.76    212
46.78    219
46.8     204
46.82    198
46.84    194
46.86    220
46.88    223
46.9     208
46.92    215
46.94    230
46.96    202
46.98    204
47.0     222
47.02    235
47.04    211
47.06    199
47.08    217
47.1     208
47.12    194
47.14    194
47.16    205
47.18    227
47.2     221
47.22    204
47.24    225
47.26    219
47.28    210
47.3     220
47.32    216
47.34    208
47.36    194
47.38    220
47.4     220
47.42    218
47.44    207
47.46    222
47.48    228
47.5     223
47.52    204
47.54    212
47.56    198
47.58    204
47.6     209
47.62    215
47.64    204
47.66    186
47.68    202
47.7     207
47.72    205
47.74    211
47.76    208
47.78    193
47.8     212
47.82    221
47.84    203
47.86    199
47.88    209
47.9     203
47.92    203
47.94    205
47.96    225
47.98    205
48.0     220
48.02    225
48.04    210
48.06    217
48.08    236
48.1     223
48.12    218
48.14    190
48.16    185
48.18    196
48.2     198
48.22    197
48.24    209
48.26    201
48.28    193
48.3     197
48.32    218
48.34    225
48.36    224
48.38    199
48.4     191
48.42    192
48.44    194
48.46    211
48.48    224
48.5     230
48.52    207
48.54    193
48.56    199
48.58    199
48.6     197
48.62    192
48.64    200
48.66    195
48.68    203
48.7     208
48.72    204
48.74    208
48.76    207
48.78    199
48.8     191
48.82    215
48.84    207
48.86    194
48.88    218
48.9     204
48.92    210
48.94    205
48.96    179
48.98    177
49.0     197
49.02    190
49.04    214
49.06    202
49.08    202
49.1     201
49.12    212
49.14    199
49.16    201
49.18    192
49.2     184
49.22    186
49.24    201
49.26    200
49.28    190
49.3     191
49.32    192
49.34    202
49.36    194
49.38    185
49.4     179
49.42    203
49.44    195
49.46    194
49.48    204
49.5     193
49.52    204
49.54    203
49.56    186
49.58    203
49.6     202
49.62    205
49.64    202
49.66    215
49.68    189
49.7     201
49.72    209
49.74    209
49.76    205
49.78    205
49.8     210
49.82    197
49.84    198
49.86    208
49.88    185
49.9     193
49.92    200
49.94    215
49.96    202
49.98    215
50.0     207
50.02    211
50.04    181
50.06    179
50.08    185
50.1     197
50.12    185
50.14    194
50.16    188
50.18    185
50.2     202
50.22    197
50.24    195
50.26    198
50.28    189
50.3     188
50.32    193
50.34    200
50.36    200
50.38    198
50.4     204
50.42    190
50.44    207
50.46    195
50.48    202
50.5     189
50.52    192
50.54    195
50.56    191
50.58    194
50.6     204
50.62    206
50.64    198
50.66    185
50.68    186
50.7     185
50.72    200
50.74    211
50.76    195
50.78    190
50.8     200
50.82    200
50.84    198
50.86    197
50.88    200
50.9     195
50.92    196
50.94    193
50.96    194
50.98    198
51.0     203
51.02    196
51.04    207
51.06    217
51.08    209
51.1     206
51.12    195
51.14    198
51.16    199
51.18    199
51.2     181
51.22    193
51.24    186
51.26    185
51.28    196
51.3     194
51.32    197
51.34    198
51.36    186
51.38    156
51.4     181
51.42    189
51.44    206
51.46    206
51.48    192
51.5     201
51.52    193
51.54    206
51.56    193
51.58    199
51.6     196
51.62    195
51.64    191
51.66    183
51.68    195
51.7     194
51.72    177
51.74    187
51.76    186
51.78    188
51.8     192
51.82    195
51.84    198
51.86    184
51.88    197
51.9     192
51.92    186
51.94    179
51.96    198
51.98    189
52.0     192
52.02    193
52.04    195
52.06    182
52.08    189
52.1     202
52.12    196
52.14    192
52.16    180
52.18    176
52.2     173
52.22    193
52.24    193
52.26    187
52.28    170
52.3     178
52.32    205
52.34    222
52.36    222
52.38    193
52.4     192
52.42    185
52.44    178
52.46    186
52.48    186
52.5     185
52.52    195
52.54    196
52.56    187
52.58    183
52.6     193
52.62    174
52.64    187
52.66    186
52.68    189
52.7     188
52.72    190
52.74    182
52.76    191
52.78    195
52.8     183
52.82    182
52.84    187
52.86    188
52.88    191
52.9     196
52.92    179
52.94    178
52.96    186
52.98    182
53.0     203
53.02    198
53.04    188
53.06    188
53.08    176
53.1     181
53.12    201
53.14    205
53.16    184
53.18    168
53.2     174
53.22    188
53.24    179
53.26    188
53.28    188
53.3     196
53.32    184
53.34    184
53.36    194
53.38    194
53.4     189
53.42    190
53.44    188
53.46    183
53.48    177
53.5     194
53.52    198
53.54    200
53.56    182
53.58    175
53.6     190
53.62    190
53.64    183
53.66    191
53.68    180
53.7     178
53.72    174
53.74    174
53.76    181
53.78    195
53.8     188
53.82    180
53.84    182
53.86    183
53.88    193
53.9     195
53.92    191
53.94    185
53.96    187
53.98    193
54.0     186
54.02    172
54.04    183
54.06    198
54.08    197
54.1     196
54.12    178
54.14    178
54.16    192
54.18    180
54.2     189
54.22    179
54.24    180
54.26    186
54.28    199
54.3     196
54.32    174
54.34    176
54.36    185
54.38    186
54.4     186
54.42    191
54.44    193
54.46    209
54.48    196
54.5     183
54.52    197
54.54    193
54.56    188
54.58    177
54.6     181
54.62    182
54.64    183
54.66    180
54.68    173
54.7     184
54.72    183
54.74    188
54.76    187
54.78    185
54.8     190
54.82    183
54.84    189
54.86    201
54.88    184
54.9     184
54.92    180
54.94    178
54.96    181
54.98    190
55.0     190
55.02    176
55.04    179
55.06    172
55.08    185
55.1     187
55.12    178
55.14    193
55.16    190
55.18    169
55.2     170
55.22    178
55.24    176
55.26    175
55.28    179
55.3     196
55.32    185
55.34    189
55.36    181
55.38    159
55.4     179
55.42    196
55.44    189
55.46    178
55.48    182
55.5     194
55.52    182
55.54    175
55.56    172
55.58    175
55.6     177
55.62    174
55.64    164
55.66    191
55.68    195
55.7     180
55.72    187
55.74    192
55.76    197
55.78    197
55.8     181
55.82    183
55.84    187
55.86    193
55.88    201
55.9     188
55.92    182
55.94    186
55.96    182
55.98    184
56.0     207
56.02    194
56.04    189
56.06    192
56.08    195
56.1     189
56.12    189
56.14    172
56.16    166
56.18    180
56.2     186
56.22    180
56.24    184
56.26    193
56.28    192
56.3     188
56.32    186
56.34    179
56.36    163
56.38    161
56.4     180
56.42    184
56.44    187
56.46    184
56.48    180
56.5     187
56.52    186
56.54    171
56.56    170
56.58    174
56.6     179
56.62    178
56.64    181
56.66    187
56.68    183
56.7     170
56.72    170
56.74    173
56.76    191
56.78    209
56.8     211
56.82    191
56.84    177
56.86    175
56.88    186
56.9     200
56.92    188
56.94    182
56.96    183
56.98    184
57.0     179
57.02    189
57.04    196
57.06    180
57.08    184
57.1     189
57.12    182
57.14    180
57.16    175
57.18    175
57.2     168
57.22    169
57.24    172
57.26    188
57.28    191
57.3     189
57.32    201
57.34    194
57.36    184
57.38    173
57.4     180
57.42    176
57.44    159
57.46    167
57.48    177
57.5     185
57.52    179
57.54    169
57.56    179
57.58    183
57.6     188
57.62    181
57.64    174
57.66    180
57.68    198
57.7     191
57.72    178
57.74    174
57.76    176
57.78    199
57.8     193
57.82    174
57.84    191
57.86    191
57.88    172
57.9     162
57.92    175
57.94    170
57.96    169
57.98    165
58.0     173
58.02    187
58.04    182
58.06    185
58.08    188
58.1     174
58.12    166
58.14    177
58.16    188
58.18    189
58.2     181
58.22    177
58.24    185
58.26    175
58.28    156
58.3     174
58.32    189
58.34    181
58.36    185
58.38    189
58.4     181
58.42    182
58.44    188
58.46    184
58.48    174
58.5     182
58.52    174
58.54    174
58.56    176
58.58    182
58.6     155
58.62    176
58.64    190
58.66    183
58.68    181
58.7     165
58.72    170
58.74    168
58.76    165
58.78    175
58.8     177
58.82    172
58.84    173
58.86    175
58.88    181
58.9     177
58.92    173
58.94    171
58.96    174
58.98    177
59.0     169
59.02    164
59.04    167
59.06    176
59.08    181
59.1     175
59.12    182
59.14    187
59.16    185
59.18    191
59.2     192
59.22    185
59.24    179
59.26    172
59.28    173
59.3     186
59.32    197
59.34    189
59.36    163
59.38    168
59.4     171
59.42    168
59.44    173
59.46    169
59.48    177
59.5     169
59.52    161
59.54    183
59.56    176
59.58    181
59.6     186
59.62    176
59.64    175
59.66    185
59.68    178
59.7     177
59.72    194
59.74    202
59.76    184
59.78    176
59.8     162
59.82    167
59.84    184
59.86    171
59.88    160
59.9     179
59.92    190
59.94    175
59.96    174
59.98    180
60.0     172
60.02    156
60.04    177
60.06    189
60.08    199
60.1     168
60.12    145
60.14    165
60.16    174
60.18    182
60.2     179
60.22    173
60.24    173
60.26    183
60.28    174
60.3     176
60.32    169
60.34    172
60.36    181
60.38    182
60.4     176
60.42    167
60.44    169
60.46    175
60.48    174
60.5     185
60.52    174
60.54    161
60.56    166
60.58    170
60.6     167
60.62    175
60.64    183
60.66    169
60.68    162
60.7     165
60.72    174
60.74    179
60.76    189
60.78    193
60.8     180
60.82    181
60.84    171
60.86    177
60.88    180
60.9     169
60.92    176
60.94    175
60.96    171
60.98    176
61.0     164
61.02    164
61.04    174
61.06    179
61.08    174
61.1     169
61.12    167
61.14    174
61.16    171
61.18    165
61.2     185
61.22    197
61.24    183
61.26    172
61.28    159
61.3     176
61.32    188
61.34    169
61.36    160
61.38    171
61.4     168
61.42    159
61.44    171
61.46    181
61.48    174
61.5     171
61.52    170
61.54    191
61.56    189
61.58    179
61.6     168
61.62    153
61.64    163
61.66    167
61.68    160
61.7     165
61.72    166
61.74    171
61.76    162
61.78    171
61.8     177
61.82    174
61.84    165
61.86    176
61.88    175
61.9     176
61.92    184
61.94    177
61.96    176
61.98    146
62.0     160
62.02    180
62.04    167
62.06    166
62.08    167
62.1     173
62.12    159
62.14    156
62.16    172
62.18    190
62.2     179
62.22    160
62.24    157
62.26    165
62.28    160
62.3     157
62.32    155
62.34    159
62.36    158
62.38    166
62.4     169
62.42    174
62.44    162
62.46    161
62.48    165
62.5     172
62.52    169
62.54    162
62.56    178
62.58    169
62.6     161
62.62    171
62.64    168
62.66    163
62.68    176
62.7     176
62.72    173
62.74    171
62.76    179
62.78    173
62.8     163
62.82    162
62.84    162
62.86    167
62.88    158
62.9     157
62.92    160
62.94    166
62.96    172
62.98    172
63.0     165
63.02    150
63.04    152
63.06    168
63.08    164
63.1     160
63.12    156
63.14    155
63.16    160
63.18    167
63.2     178
63.22    177
63.24    161
63.26    171
63.28    166
63.3     167
63.32    170
63.34    165
63.36    163
63.38    168
63.4     169
63.42    174
63.44    170
63.46    167
63.48    178
63.5     175
63.52    157
63.54    171
63.56    164
63.58    167
63.6     159
63.62    163
63.64    158
63.66    162
63.68    170
63.7     157
63.72    166
63.74    166
63.76    166
63.78    162
63.8     159
63.82    175
63.84    166
63.86    157
63.88    160
63.9     159
63.92    155
63.94    152
63.96    157
63.98    158
64.0     154
64.02    155
64.04    147
64.06    153
64.08    158
64.1     160
64.12    165
64.14    161
64.16    175
64.18    177
64.2     166
64.22    167
64.24    162
64.26    161
64.28    164
64.3     170
64.32    152
64.34    149
64.36    155
64.38    154
64.4     153
64.42    142
64.44    131
64.46    148
64.48    156
64.5     153
64.52    177
64.54    169
64.56    161
64.58    168
64.6     174
64.62    150
64.64    144
64.66    150
64.68    149
64.7     163
64.72    164
64.74    158
64.76    149
64.78    146
64.8     154
64.82    162
64.84    142
64.86    147
64.88    146
64.9     160
64.92    157
64.94    155
64.96    152
64.98    154
65.0     155
65.02    156
65.04    170
65.06    155
65.08    148
65.1     166
65.12    171
65.14    160
65.16    150
65.18    148
65.2     153
65.22    161
65.24    153
65.26    172
65.28    161
65.3     169
65.32    173
65.34    161
65.36    162
65.38    161
65.4     168
65.42    162
65.44    164
65.46    159
65.48    154
65.5     162
65.52    150
65.54    148
65.56    146
65.58    138
65.6     140
65.62    147
65.64    150
65.66    155
65.68    160
65.7     154
65.72    140
65.74    144
65.76    151
65.78    158
65.8     162
65.82    150
65.84    136
65.86    133
65.88    149
65.9     147
65.92    159
65.94    153
65.96    156
65.98    139
66.0     146
66.02    150
66.04    141
66.06    145
66.08    144
66.1     153
66.12    140
66.14    142
66.16    154
66.18    156
66.2     151
66.22    152
66.24    152
66.26    146
66.28    146
66.3     158
66.32    158
66.34    171
66.36    158
66.38    154
66.4     158
66.42    149
66.44    143
66.46    139
66.48    141
66.5     149
66.52    155
66.54    155
66.56    160
66.58    142
66.6     145
66.62    150
66.64    161
66.66    169
66.68    167
66.7     158
66.72    147
66.74    153
66.76    158
66.78    177
66.8     152
66.82    143
66.84    152
66.86    149
66.88    131
66.9     147
66.92    155
66.94    147
66.96    153
66.98    154
67.0     159
67.02    147
67.04    146
67.06    162
67.08    145
67.1     137
67.12    145
67.14    152
67.16    158
67.18    157
67.2     143
67.22    134
67.24    134
67.26    148
67.28    156
67.3     148
67.32    149
67.34    161
67.36    154
67.38    152
67.4     154
67.42    136
67.44    146
67.46    153
67.48    143
67.5     142
67.52    131
67.54    124
67.56    126
67.58    141
67.6     134
67.62    135
67.64    155
67.66    151
67.68    154
67.7     159
67.72    146
67.74    145
67.76    140
67.78    156
67.8     150
67.82    149
67.84    141
67.86    155
67.88    146
67.9     146
67.92    147
67.94    158
67.96    144
67.98    144
68.0     150
68.02    155
68.04    138
68.06    154
68.08    138
68.1     145
68.12    144
68.14    143
68.16    139
68.18    146
68.2     159
68.22    148
68.24    129
68.26    130
68.28    150
68.3     144
68.32    141
68.34    129
68.36    138
68.38    142
68.4     139
68.42    147
68.44    148
68.46    131
68.48    139
68.5     141
68.52    135
68.54    134
68.56    136
68.58    142
68.6     154
68.62    132
68.64    143
68.66    140
68.68    136
68.7     146
68.72    149
68.74    144
68.76    132
68.78    133
68.8     143
68.82    133
68.84    138
68.86    142
68.88    152
68.9     142
68.92    138
68.94    135
68.96    139
68.98    128
69.0     134
69.02    150
69.04    150
69.06    144
69.08    144
69.1     139
69.12    146
69.14    152
69.16    146
69.18    139
69.2     146
69.22    143
69.24    141
69.26    142
69.28    135
69.3     149
69.32    137
69.34    124
69.36    142
69.38    145
69.4     133
69.42    138
69.44    137
69.46    136
69.48    132
69.5     131
69.52    133
69.54    132
69.56    143
69.58    144
69.6     148
69.62    149
69.64    132
69.66    139
69.68    123
69.7     131
69.72    135
69.74    128
69.76    131
69.78    139
69.8     142
69.82    137
69.84    136
69.86    138
69.88    129
69.9     137
69.92    126
69.94    136
69.96    140
69.98    141
70.0     144
70.02    139
70.04    129
70.06    132
70.08    126
70.1     116
70.12    122
70.14    132
70.16    128
70.18    137
70.2     146
70.22    138
70.24    140
70.26    133
70.28    124
70.3     133
70.32    131
70.34    133
70.36    138
70.38    135
70.4     122
70.42    129
70.44    137
70.46    133
70.48    149
70.5     131
70.52    119
70.54    125
70.56    147
70.58    136
70.6     134
70.62    134
70.64    138
70.66    135
70.68    135
70.7     146
70.72    148
70.74    136
70.76    130
70.78    138
70.8     125
70.82    133
70.84    130
70.86    133
70.88    134
70.9     125
70.92    135
70.94    134
70.96    128
70.98    132
71.0     138
71.02    117
71.04    117
71.06    125
71.08    118
71.1     132
71.12    135
71.14    134
71.16    146
71.18    143
71.2     143
71.22    142
71.24    129
71.26    128
71.28    131
71.3     146
71.32    151
71.34    149
71.36    130
71.38    125
71.4     135
71.42    123
71.44    122
71.46    129
71.48    124
71.5     117
71.52    146
71.54    132
71.56    117
71.58    124
71.6     116
71.62    116
71.64    121
71.66    129
71.68    133
71.7     109
71.72    119
71.74    129
71.76    139
71.78    134
71.8     109
71.82    120
71.84    111
71.86    125
71.88    113
71.9     118
71.92    137
71.94    134
71.96    123
71.98    132
72.0     133
72.02    130
72.04    121
72.06    133
72.08    135
72.1     123
72.12    113
72.14    117
72.16    125
72.18    130
72.2     133
72.22    125
72.24    129
72.26    131
72.28    128
72.3     117
72.32    111
72.34    124
72.36    129
72.38    114
72.4     109
72.42    111
72.44    113
72.46    129
72.48    139
72.5     120
72.52    125
72.54    136
72.56    127
72.58    123
72.6     118
72.62    126
72.64    115
72.66    118
72.68    126
72.7     122
72.72    123
72.74    129
72.76    121
72.78    119
72.8     112
72.82    108
72.84    122
72.86    119
72.88    130
72.9     138
72.92    120
72.94    116
72.96    121
72.98    130
73.0     132
73.02    122
73.04    137
73.06    140
73.08    127
73.1     116
73.12    119
73.14    116
73.16    118
73.18    127
73.2     123
73.22    123
73.24    119
73.26    124
73.28    119
73.3     141
73.32    127
73.34    145
73.36    137
73.38    110
73.4     116
73.42    126
73.44    135
73.46    121
73.48    108
73.5     130
73.52    135
73.54    128
73.56    126
73.58    113
73.6     131
73.62    130
73.64    124
73.66    121
73.68    122
73.7     124
73.72    114
73.74    123
73.76    131
73.78    127
73.8     122
73.82    120
73.84    122
73.86    123
73.88    112
73.9     117
73.92    126
73.94    122
73.96    127
73.98    117
74.0     117
74.02    119
74.04    122
74.06    110
74.08    112
74.1     119
74.12    117
74.14    117
74.16    122
74.18    127
74.2     126
74.22    111
74.24    116
74.26    111
74.28    119
74.3     117
74.32    113
74.34    115
74.36    122
74.38    125
74.4     116
74.42    125
74.44    112
74.46    106
74.48    120
74.5     125
74.52    130
74.54    122
74.56    131
74.58    114
74.6     117
74.62    111
74.64    108
74.66    119
74.68    113
74.7     123
74.72    113
74.74    129
74.76    115
74.78    113
74.8     122
74.82    129
74.84    124
74.86    123
74.88    116
74.9     121
74.92    121
74.94    123
74.96    119
74.98    124
75.0     132
75.02    121
75.04    112
75.06    104
75.08    127
75.1     125
75.12    106
75.14    115
75.16    116
75.18    109
75.2     123
75.22    133
75.24    117
75.26    104
75.28    111
75.3     112
75.32    110
75.34    114
75.36    117
75.38    110
75.4     110
75.42    109
75.44    107
75.46    107
75.48    118
75.5     135
75.52    115
75.54    126
75.56    114
75.58    104
75.6     109
75.62    118
75.64    118
75.66    113
75.68    113
75.7     123
75.72    127
75.74    124
75.76    108
75.78    115
75.8     119
75.82    112
75.84    119
75.86    107
75.88    114
75.9     114
75.92    109
75.94    119
75.96    128
75.98    114
76.0     99
76.02    103
76.04    107
76.06    107
76.08    111
76.1     115
76.12    105
76.14    104
76.16    101
76.18    123
76.2     126
76.22    124
76.24    121
76.26    110
76.28    110
76.3     107
76.32    116
76.34    111
76.36    114
76.38    113
76.4     104
76.42    100
76.44    111
76.46    112
76.48    105
76.5     100
76.52    116
76.54    109
76.56    110
76.58    109
76.6     100
76.62    118
76.64    133
76.66    113
76.68    106
76.7     117
76.72    106
76.74    96
76.76    105
76.78    107
76.8     109
76.82    111
76.84    115
76.86    119
76.88    122
76.9     103
76.92    101
76.94    108
76.96    105
76.98    117
77.0     112
77.02    113
77.04    104
77.06    114
77.08    101
77.1     107
77.12    109
77.14    124
77.16    125
77.18    112
77.2     117
77.22    112
77.24    104
77.26    116
77.28    117
77.3     109
77.32    115
77.34    128
77.36    120
77.38    117
77.4     110
77.42    110
77.44    127
77.46    120
77.48    112
77.5     108
77.52    107
77.54    109
77.56    116
77.58    124
77.6     109
77.62    116
77.64    119
77.66    119
77.68    109
77.7     110
77.72    108
77.74    112
77.76    114
77.78    107
77.8     106
77.82    105
77.84    108
77.86    112
77.88    111
77.9     106
77.92    108
77.94    113
77.96    113
77.98    111
78.0     119
78.02    111
78.04    123
78.06    111
78.08    114
78.1     95
78.12    107
78.14    132
78.16    114
78.18    113
78.2     105
78.22    111
78.24    105
78.26    105
78.28    93
78.3     97
78.32    99
78.34    131
78.36    125
78.38    110
78.4     97
78.42    100
78.44    102
78.46    114
78.48    110
78.5     102
78.52    108
78.54    107
78.56    117
78.58    117
78.6     110
78.62    115
78.64    123
78.66    126
78.68    125
78.7     109
78.72    124
78.74    109
78.76    106
78.78    99
78.8     92
78.82    105
78.84    102
78.86    106
78.88    111
78.9     112
78.92    101
78.94    132
78.96    128
78.98    115
79.0     112
79.02    114
79.04    113
79.06    108
79.08    121
79.1     107
79.12    101
79.14    110
79.16    111
79.18    105
79.2     107
79.22    105
79.24    108
79.26    107
79.28    100
79.3     100
79.32    108
79.34    104
79.36    98
79.38    107
79.4     122
79.42    96
79.44    107
79.46    110
79.48    104
79.5     101
79.52    105
79.54    108
79.56    107
79.58    122
79.6     116
79.62    109
79.64    110
79.66    94
79.68    103
79.7     105
79.72    104
79.74    126
79.76    105
79.78    103
79.8     105
79.82    109
79.84    112
79.86    103
79.88    107
79.9     98
79.92    97
79.94    112
79.96    114
79.98    113
80.0     113
